energy,beta
10.0,0.09742384824022605
10.1617,0.09457882312542909
10.2439,0.0931806411691893
10.3261,0.09181481585581976
10.4931,0.08913335611171748
10.6628,0.08652970543047037
10.8353,0.08400135186440472
11.0106,0.08167636768266391
11.1886,0.08142743094404276
11.3696,0.08117729749530726
11.5535,0.08092889218059429
11.7404,0.08068003867132133
11.9303,0.0804325831381558
12.1232,0.08021412449834843
12.3193,0.08001074200519016
12.5186,0.07980709283952576
12.721,0.07960578621622577
12.9268,0.07940339807393994
13.1359,0.07917776700868424
13.3483,0.07894095894015365
13.5642,0.07870401380841427
13.7836,0.07846799837305715
14.0066,0.0782316392755631
14.2331,0.07793798338994895
14.4633,0.07729536134847839
14.6973,0.07665770115356227
14.935,0.07602593100954194
15.1765,0.07539982838328968
15.422,0.07477789812401484
15.6714,0.07406281938556186
15.9249,0.07310797533048162
16.1825,0.07216550367511652
16.4442,0.07123559251141423
16.7102,0.07031721807467328
16.9805,0.06941059684375796
17.2551,0.0685163848837463
17.5342,0.06741433836482319
17.8178,0.06619959039412514
18.106,0.06500675528750254
18.3989,0.06383529866860585
18.6964,0.06268565444211893
18.9988,0.06155615230326302
19.3061,0.05911168137538752
19.6184,0.05682602404442093
19.9357,0.055173546061867855
20.2582,0.05356875095054149
20.5858,0.052011214275575
20.9188,0.050513815170205714
21.2571,0.049620576045916444
21.6009,0.04874295380033422
21.9503,0.04788064779269798
22.3053,0.047583449490974906
22.6661,0.047423357956452306
23.0327,0.04726393211169023
23.4053,0.04710470240165251
23.7838,0.04694652197084878
24.1685,0.04609009408651335
24.5594,0.04495357506256737
24.9566,0.04384499629480987
25.3603,0.04276354778140479
25.7705,0.04170890309046971
26.1873,0.04029874141368339
26.6109,0.03880452004843966
27.0413,0.03736579003598181
27.4786,0.03598051485858509
27.9231,0.03460296248620687
28.3747,0.03319846500712635
28.8337,0.031850759918698617
29.3,0.030558049491440892
29.7739,0.02931765705821874
30.2555,0.028127539840974394
30.7449,0.027011024261749776
31.2421,0.025944055498216597
31.7475,0.024919040952704398
32.2609,0.023934786619410172
32.7827,0.022989220985624458
33.313,0.022080957367212602
33.8518,0.021208651859074203
34.3993,0.020370871583971148
34.9557,0.019580318106009145
35.5211,0.018837992944759244
36.0956,0.018123777162982763
36.6794,0.017436664648200633
37.2727,0.01677553603897224
37.8755,0.016139548113163597
38.4882,0.015527592796043604
39.1107,0.015030859214131262
39.7432,0.014554945058538033
40.3861,0.014093979930288731
41.0393,0.013647680137871005
41.7031,0.013215490441419363
42.3776,0.01279696989865519
43.063,0.012454304630854077
43.7595,0.0121523543753879
44.4673,0.011857715840198603
45.1865,0.011570284669058292
45.9174,0.011289752651885372
46.66,0.011016074817388742
47.4147,0.010749012101682753
48.1816,0.010507974849602008
48.9609,0.010330401214999329
49.7528,0.010155822918333753
50.5576,0.009984201564625416
51.3753,0.009815479643242744
52.2062,0.009649646686732728
53.0506,0.009494530945663536
53.9087,0.00934453939234631
54.7806,0.009196959427595582
55.6667,0.009051678060469092
56.567,0.008908718702967342
57.482,0.00876550543060577
58.4117,0.008583712522162622
59.3564,0.008405714412362396
60.3165,0.008231376477094644
61.2921,0.008113488713062101
62.2834,0.008158533628534853
63.2908,0.008203785826011218
63.80265,0.008227434526820673
64.05857499999999,0.008238583169943902
64.3145,0.008249294155537148
64.57454999999999,0.008410050854405712
64.8346,0.008567968132899036
65.3547,0.008875493421086471
65.618975,0.009136561116279881
65.88325,0.00939316275130372
66.4118,0.009893293453671213
66.680325,0.01018431159808957
66.94885,0.010470351816882668
67.4859,0.011027861376109041
67.75880000000001,0.011352234232143996
68.0317,0.011671057915346268
68.3046,0.011984434117662318
68.44104999999999,0.01213911059560494
68.509275,0.01221595130514776
68.5775,0.012292462354580888
68.646825,0.012298385555124951
68.71615,0.012304259842479811
68.85480000000001,0.012315862714260007
69.13210000000001,0.01233849281942821
69.6867,0.012381506641448855
70.8138,0.012407978840345711
71.38645,0.012407453819059907
71.9591,0.012405373857836488
72.25007500000001,0.0123466557330763
72.54105000000001,0.01228847864045027
73.123,0.012173718401983046
74.3057,0.011946405909483131
75.5076,0.011723309991723687
76.7289,0.011504396887031303
77.9699,0.011227268124207799
79.231,0.010936374769756039
80.5125,0.010653016692113104
81.8147,0.010377025465102052
83.138,0.010108149606242707
84.4827,0.009780149295297772
85.8491,0.009447266255816883
87.2377,0.009125689167208559
88.6487,0.00881507626416969
90.0825,0.008515037085287941
91.5395,0.00822520601612447
93.0201,0.007954976541814244
94.5246,0.007714069014677031
96.0535,0.007480448746978718
97.6071,0.007253909919576594
99.1858,0.007034237464170812
100.79,0.00682122374588117
102.42,0.006614667605127848
104.077,0.006414295627616252
105.76,0.006220089876551288
107.471,0.00603167748424247
109.209,0.005841941246538982
110.975,0.005656564516793765
112.77,0.005477032620084195
114.594,0.00530319642985881
116.448,0.0051348388346998015
118.331,0.004971909525370734
120.245,0.004814105718871402
122.19,0.00465617618368067
124.166,0.004501944340751411
126.175,0.004352746905134165
128.215,0.004208586299810369
130.289,0.004069147038197059
132.397,0.003934294825702831
134.538,0.0038039722311402828
136.714,0.003706506717928668
138.925,0.0036138105361381645
141.172,0.0035234132204649245
143.456,0.0034352548939076463
145.776,0.003349333913570982
148.134,0.003265570011644175
150.53,0.0031838871123666714
152.964,0.0031042580668243077
155.439,0.0030265951453057067
157.953,0.002948029970441665
159.23000000000002,0.0028966096694579757
160.507,0.0028464460544421143
163.103,0.002748340849309795
165.742,0.0026535865222960474
168.422,0.0025621527714968146
171.146,0.0024738523559408154
173.915,0.002388571241886156
176.727,0.002306279087058928
179.586,0.002226764228454104
182.491,0.002150019976430325
185.442,0.0020759243956371396
188.442,0.0020043770056609404
191.489,0.0019353092961485543
194.587,0.0018685902645280523
197.734,0.0018041973881828257
200.932,0.001742018451956993
204.182,0.0016819763948203248
207.485,0.0016147218264397959
210.84,0.0015485105293664464
214.251,0.0014849895871947673
217.716,0.0014240907984960666
221.237,0.001365689307778483
224.816,0.0013096711774860925
228.452,0.0012559611669575024
232.147,0.0012044494873338835
235.902,0.0011550495285672009
239.717,0.0011076836613094485
243.595,0.0010622473632711862
247.535,0.001018680449226798
251.538,0.0009769065331270794
255.607,0.0009368377848283449
259.741,0.0008984162111626535
263.942,0.0008615713907436648
268.211,0.0008262360256253735
272.549,0.0007923496503915079
276.957,0.0007598551151357156
281.437,0.0007286886938732062
285.989,0.0006978989509393437
290.615,0.0006652700658685919
295.315,0.0006341718370152619
300.092,0.0006045218585074511
304.945,0.0005762638025735409
309.878,0.0005493206622924912
314.89,0.0005236406939528577
319.983,0.0004991607756363885
325.158,0.000475826299781148
330.418,0.0004535795225968692
335.762,0.00043237599530141245
341.192,0.00041216426022066573
346.711,0.00039289460590765014
352.319,0.00037452618871980993
358.017,0.00035701857718943895
363.808,0.0003403271318041685
369.692,0.00032441735728385644
375.672,0.00030864737031089144
381.748,0.0002934675430858074
387.922,0.00027903446527864515
394.197,0.0002653097829500877
400.573,0.0002522607451942254
407.052,0.00023985342317975756
413.635,0.0002280576007684281
420.326,0.0002168400547500082
427.124,0.00020617574555576462
434.032,0.00019603551489313662
441.052,0.00018639387914938437
448.186,0.00017722626045590522
455.435,0.0001685097136079819
462.802,0.00016022125773059896
470.287,0.00015234147294914253
477.894,0.00014484856284361424
485.623,0.00013772467133142435
493.478,0.00013095046106157974
501.459,0.00012433170232307184
509.57,0.0001175572673481292
517.812,0.00011115169968078803
526.187,0.00010509542248792601
534.698,9.936899400058924e-05
543.346,9.395454111985773e-05
552.134,8.88353588369033e-05
561.065,8.399452941769002e-05
570.139,7.941827343194669e-05
579.361,7.509078754623816e-05
588.732,7.09991016247373e-05
598.254,6.713061939387116e-05
607.93,6.34727937720112e-05
617.763,6.026198326766945e-05
627.755,5.7276836813507985e-05
637.908,5.443970892994367e-05
648.226,5.1743041223757984e-05
658.711,4.917983239740159e-05
669.365,4.674373348867354e-05
680.191,4.4428393669323074e-05
691.193,4.2227515352577176e-05
702.372,4.0135786520448076e-05
713.733,3.814767532622638e-05
725.277,3.586771695328145e-05
731.1425,3.449879991651173e-05
737.008,3.316874414461671e-05
742.9680000000001,3.1902847249373985e-05
748.928,3.067288507281567e-05
761.042,2.935231436191785e-05
773.351,2.785612369657747e-05
779.605,2.7168096575697144e-05
785.859,2.649835565998143e-05
792.2145,2.5869033753385336e-05
798.57,2.5256309436772304e-05
805.028,2.4659304430742427e-05
811.486,2.4078029094406025e-05
818.0485,2.350891760463266e-05
821.32975,2.3230016230055056e-05
824.611,2.295480072105373e-05
827.9455,2.2681736878858626e-05
831.28,2.2412306891773948e-05
834.6144999999999,2.2146449976693863e-05
837.949,2.1884106591166736e-05
840.0,2.1726106433291547e-05
842.5,2.159735941932114e-05
845.0,2.1469753439067982e-05
845.3,2.145451675841531e-05
845.6,2.1439296291788074e-05
845.9,2.1424092016189014e-05
846.2,2.140890390866163e-05
846.5,2.1393731946290104e-05
846.8,2.137857610619919e-05
847.1,2.1363436365554136e-05
847.4,2.1348312701560625e-05
847.7,2.133320509146465e-05
848.0,2.1318113512552448e-05
848.3,2.1303037942150424e-05
848.6,2.1287978357625025e-05
848.9,2.127293473638273e-05
849.2,2.1257907055869867e-05
849.5,2.1242895293572637e-05
849.8,2.1227899427016923e-05
850.0,2.1217911002533586e-05
850.1,2.121291943376828e-05
850.2,2.120792962621511e-05
850.3,2.120294157904562e-05
850.4,2.1197955291431833e-05
850.5,2.1192970762546245e-05
850.6,2.1187987991561863e-05
850.7,2.1183006977652163e-05
850.8,2.1178027719991127e-05
850.9,2.117305021775319e-05
851.0,2.116807447011329e-05
851.1,2.116310047624686e-05
851.2,2.1158128235329805e-05
851.3,2.1153157746538514e-05
851.4,2.1148189009049854e-05
851.5,2.1143222022041195e-05
851.6,2.1138256784690364e-05
851.7,2.1133293296175696e-05
851.8,2.1128331555676e-05
851.9,2.1123371562370543e-05
852.0,2.1118413315439115e-05
852.1,2.1113456814061956e-05
852.2,2.11085020574198e-05
852.3,2.1103549044693866e-05
852.4,2.1098597775065833e-05
852.5,2.1093648247717878e-05
852.6,2.1088700461832656e-05
852.7,2.1083754416593294e-05
852.8,2.1078810111183408e-05
852.9,2.107386754478708e-05
853.0,2.1068926716588876e-05
853.1,2.1063987625773845e-05
853.2,2.1059050271527507e-05
853.3,2.1054114653035867e-05
853.4,2.104918076948539e-05
853.5,2.104424862006304e-05
853.6,2.1039318203956236e-05
853.7,2.1034389520352888e-05
853.8,2.102946256844138e-05
853.9,2.1024537347410563e-05
854.0,2.1019613856449765e-05
854.1,2.1014692094748792e-05
854.2,2.1009772061497926e-05
854.3,2.100485375588793e-05
854.4,2.0999937177110015e-05
854.5,2.0995022324355883e-05
854.6,2.0990109196817713e-05
854.7,2.0985197793688142e-05
854.8,2.0980288114160302e-05
854.9,2.097538015742777e-05
855.0,2.097047392268461e-05
855.5,2.0945968550634504e-05
856.0,2.092150610769843e-05
856.5,2.0897086493662543e-05
857.0,2.0872709608605247e-05
857.5,2.084837535289618e-05
858.0,2.082408362719518e-05
858.5,2.0799834332451314e-05
859.0,2.0775627369901807e-05
859.5,2.0751462641071088e-05
860.0,2.0727340047769765e-05
860.5,2.070325949209362e-05
861.0,2.0679220876422647e-05
861.5,2.065522410342004e-05
862.0,2.0631269076031187e-05
862.5,2.0607355697482737e-05
863.0,2.0583483871281583e-05
863.5,2.0559653501213922e-05
863.75,2.054775383223946e-05
864.0,2.053586449134425e-05
864.25,2.0523985466579677e-05
864.5,2.051211674601441e-05
864.75,2.050025831773436e-05
865.0,2.0488410169842648e-05
865.25,2.0476572290459585e-05
865.375,2.0470657197751083e-05
865.5,2.0464744667722636e-05
865.625,2.045883469891764e-05
865.75,2.045292728983347e-05
865.875,2.044702243899212e-05
866.0,2.044112014491664e-05
866.125,2.043622044793583e-05
866.1875,2.043377134075118e-05
866.25,2.0431322727587152e-05
866.3125,2.0428874608306393e-05
866.375,2.0426426982771582e-05
866.4375,2.0423979850845475e-05
866.46875,2.0422756469942807e-05
866.484375,2.042214482574907e-05
866.5,2.0421533212388488e-05
866.515625,2.1133162183126516e-05
866.53125,2.184473981363927e-05
866.5625,2.326774107061883e-05
866.625,2.6113127685045895e-05
866.75,3.180143824849599e-05
866.8125,3.4644362730235736e-05
866.84375,3.606551738758397e-05
866.875,3.748646703362288e-05
866.90625,3.890721170160405e-05
866.9375,4.0327751424781205e-05
866.953125,4.1037944442462604e-05
866.96875,4.174808623640169e-05
866.984375,4.245817681076195e-05
866.9921875,4.281320289190688e-05
866.99609375,4.2990711131187045e-05
867.0,4.316821616970647e-05
867.003125,4.397986828807464e-05
867.00625,4.4791508703440705e-05
867.0125,4.641475442578884e-05
867.025,4.9661105442332536e-05
867.0374999999999,5.290726923158787e-05
867.05,5.6153245805667354e-05
867.075,6.264463735691523e-05
867.1,6.913528019319713e-05
867.10625,7.110051512343515e-05
867.1125,7.306569338637207e-05
867.125,7.6995879917729e-05
867.1375,8.092583980193744e-05
867.1500000000001,8.485557305370005e-05
867.1625000000001,8.878507968771831e-05
867.1750000000001,9.27143597186584e-05
867.1875,9.664341316125372e-05
867.2,0.0001005722400302366
867.25,0.00011377258148935681
867.2625,0.00011707219110629127
867.275,0.00012037161044869203
867.2874999999999,0.00012367083952900332
867.2937499999999,0.0001253203827247191
867.3,0.0001269698783595316
867.30625,0.0001279308707509764
867.3125,0.00012889183542905898
867.3249999999999,0.00013081368164864725
867.3499999999999,0.0001346570415668346
867.375,0.00013849995817160783
867.3875,0.00014042125024944348
867.39375,0.0001413818547353575
867.4,0.00014234243152048097
867.40625,0.00014273036605673986
867.4124999999999,0.00014311828939746177
867.425,0.00014389410249375555
867.45,0.00014544559435587651
867.475,0.0001469969071300652
867.4875,0.00014777249636645326
867.5,0.000148548040839571
867.5125,0.00014876481414542473
867.525,0.00014898157489591087
867.55,0.00014941505873403293
867.6,0.0001502818757817159
867.625,0.00015036501398648763
867.6500000000001,0.00015044814235986721
867.7,0.00015061436961758996
867.75,0.00015063466737142358
867.8,0.00015065495944741888
867.8499999999999,0.00015065471852871966
867.9,0.0001506544766655041
867.95,0.00015065226757339788
868.0,0.00015065005799048557
868.1,0.00015064538255098924
868.2,0.00015064069709305232
868.3,0.00015063601289364007
868.4,0.00015063133030467847
868.5,0.00015062664933298593
868.6,0.00015062196997792893
868.7,0.00015061729223876433
868.8,0.00015061261611474814
868.9,0.00015060794160513705
869.0,0.0001506032687091878
869.1,0.00015059859742615778
869.2,0.0001505939277553048
869.3,0.00015058925969588713
869.4,0.0001505845932471634
869.5,0.0001505799284083926
869.6,0.00015057526517883423
869.7,0.00015057060355774834
869.8,0.00015056594354439514
869.9,0.00015056128513803543
870.0,0.00015055662833793047
870.1,0.00015055197314334178
870.2,0.0001505473195535315
870.3,0.000150542667567762
870.4,0.00015053801718529626
870.5,0.00015053336840539755
870.6,0.0001505287212273296
870.7,0.00015052407565035655
870.8,0.00015051943167374308
870.9,0.00015051478929675407
871.0,0.0001505101485186551
871.1,0.00015050550933871186
871.2,0.0001505008717561907
871.3,0.0001504962357703583
871.4,0.00015049160138048176
871.5,0.00015048696858582864
871.6,0.0001504823373856669
871.7,0.00015047770777926482
871.8,0.0001504730797658913
871.9,0.00015046845334481556
872.0,0.00015046382851530713
872.5,0.0001504407282157417
873.0,0.00015041766759604525
873.5,0.0001503946465653912
874.0,0.00015037166503321264
874.5,0.00015034872290920154
875.0,0.00015032582010330786
875.5,0.00015030295652573858
876.0,0.00015028013208695696
876.5,0.00015025734669768135
877.0,0.00015023460026888474
877.5,0.0001502118927117937
878.0,0.00015018922393788737
878.5,0.00015016659385889668
879.0,0.00015014400238680373
879.5,0.00015012144943384062
880.0,0.00015009893491248877
880.8431875,0.00014961652582810508
881.686375,0.00014913568668607075
883.37275,0.00014817869284720027
885.059125,0.0001472279029443483
886.7455,0.00014628326702138703
888.431875,0.00014534473561183086
890.11825,0.00014441225973315484
891.804625,0.00014348579088118926
893.491,0.00014256528102458974
895.2975,0.00014160091415944224
897.104,0.0001406431510596538
900.717,0.0001387472120221892
904.3299999999999,0.00013687702141878863
907.943,0.00013503214583780894
911.61425,0.0001332117354956974
915.2855,0.00013141612863763606
918.95675,0.00012964490623329264
922.628,0.00012789765785209406
930.0895,0.00012453526102352964
937.551,0.00012126327531345814
945.133,0.00011803314347011801
952.715,0.00011489006767194185
960.4195,0.00011179533701432767
964.27175,0.00011027948689410245
968.124,0.00010878417543129367
975.9535000000001,0.0001065236665056354
979.86825,0.00010541524227741248
981.825625,0.00010486638271828485
983.783,0.0001043210523389972
985.7719999999999,0.00010414699556177138
987.761,0.00010397349333231203
991.739,0.00010362814268044624
995.7170000000001,0.00010328498083755845
999.695,0.00010294398845917716
1001.715625,0.00010318064596548851
1003.73625,0.00010341456534698679
1007.7775,0.0001038742983983935
1011.81875,0.00010432340191810925
1013.839375,0.00010454403327237213
1014.8496875000001,0.00010465338016462104
1015.86,0.00010476208546345046
1016.8868749999999,0.00010441319744591538
1017.9137499999999,0.00010406550332661989
1019.9675,0.0001033736764512925
1024.075,0.00010200412730558183
1028.1825,0.00010065311981658528
1032.29,9.932034230050992e-05
1040.6399999999999,9.665933050856916e-05
1048.99,9.407012220779224e-05
1057.475,9.153201121180171e-05
1065.96,8.906247088930123e-05
1083.2,8.432082254103392e-05
1100.72,7.983111078905081e-05
1118.52,7.558034625928302e-05
1136.61,7.155593585921994e-05
1155.0,6.774498129262776e-05
1173.68,6.413811277530551e-05
1192.66,6.072352895269006e-05
1211.95,5.7490198625283295e-05
1231.55,5.4429150775081754e-05
1251.47,5.15214609217242e-05
1271.72,4.875828959629598e-05
1292.29,4.613238905420471e-05
1313.19,4.3648099550949894e-05
1334.43,4.1297224949375975e-05
1356.01,3.9073049602351994e-05
1377.94,3.696889306546468e-05
1400.23,3.497762537551078e-05
1422.88,3.3093563728864e-05
1445.89,3.131145883045573e-05
1469.28,2.9620640100623992e-05
1493.04,2.8015069455635245e-05
1517.19,2.6471354162524785e-05
1541.73,2.5009573623494137e-05
1566.67,2.3628671887255747e-05
1592.01,2.2323907660512254e-05
1617.76,2.1091066277177972e-05
1643.92,1.9926366487072107e-05
1670.51,1.8825919362259275e-05
1697.53,1.778639891209408e-05
1724.99,1.6804448056402073e-05
1752.89,1.5869230008745885e-05
1781.24,1.4983766390882023e-05
1810.05,1.414606415831365e-05
1839.32,1.33553428096063e-05
1869.07,1.2608683404244882e-05
1899.3,1.1903703165572374e-05
1930.02,1.1238353054202714e-05
1961.24,1.0610128105052852e-05
1992.96,1.001687321870001e-05
2025.2,9.460340787862608e-06
2057.95,8.929289058404458e-06
2091.24,8.42740113050671e-06
2125.06,7.9534009340992e-06
2159.43,7.505826133468051e-06
2194.36,7.0827628235769545e-06
2229.85,6.683717335380346e-06
2265.92,6.306580430094947e-06
2302.57,5.950406061150843e-06
2339.81,5.61439253783348e-06
2377.66,5.297010884892404e-06
2416.11,4.997629862672411e-06
2455.19,4.714740653551327e-06
2494.9,4.447742592202382e-06
2535.26,4.1959179163565205e-06
2576.26,3.957990965121405e-06
2617.93,3.733559399817307e-06
2660.27,3.5217052994112226e-06
2703.3,3.3217892899784e-06
2747.03,3.1330975170704743e-06
2791.46,2.955069653285419e-06
2836.61,2.7870486790444424e-06
2882.49,2.6285408267666648e-06
2929.11,2.4789585226661927e-06
2976.48,2.337845340599744e-06
3024.63,2.2046905573225334e-06
3073.55,2.0790721547649713e-06
3123.26,1.960539355402038e-06
3173.78,1.848718693293144e-06
3225.11,1.7432307255471933e-06
3277.27,1.6437471320827938e-06
3330.28,1.549880151344412e-06
3384.15,1.4613257561192368e-06
3438.88,1.3777911720643767e-06
