Energy,Difference
270.2,-3.3014703476780924e-06
270.21999999999997,-3.153943329091569e-06
270.23999999999995,-3.0143016862668082e-06
270.25999999999993,-3.2969043882697647e-06
270.2799999999999,-3.6084967863454076e-06
270.2999999999999,-3.977763463258307e-06
270.3199999999999,-4.323671084142893e-06
270.33999999999986,-4.496118594973195e-06
270.35999999999984,-4.440289036892677e-06
270.3799999999998,-4.3835015429144385e-06
270.3999999999998,-4.322838781670438e-06
270.4199999999998,-4.256327305242103e-06
270.43999999999977,-4.1830636019880176e-06
270.45999999999975,-4.102798626666923e-06
270.47999999999973,-4.015498193786552e-06
270.4999999999997,-3.9215753893635205e-06
270.5199999999997,-3.71978719334294e-06
270.5399999999997,-3.528140362731691e-06
270.55999999999966,-3.3792058879772842e-06
270.57999999999964,-3.276713581249766e-06
270.5999999999996,-3.223607895166476e-06
270.6199999999996,-3.2172711439196496e-06
270.6399999999996,-3.2454670204446088e-06
270.65999999999957,-3.2869114862081132e-06
270.67999999999955,-3.31656025539555e-06
270.69999999999953,-3.3129709592545593e-06
270.7199999999995,-3.2639394221429303e-06
270.7399999999995,-3.1675588759145897e-06
270.7599999999995,-2.8702060912254546e-06
270.77999999999946,-2.382244892122882e-06
270.79999999999944,-1.9561106876795014e-06
270.8199999999994,-1.6131314193913131e-06
270.8399999999994,-1.6601451797169178e-06
270.8599999999994,-1.7678442137210614e-06
270.87999999999937,-1.9121383770943837e-06
270.89999999999935,-2.09259354569546e-06
270.91999999999933,-2.207506810946133e-06
270.9399999999993,-2.040112782093574e-06
270.9599999999993,-1.8646362507263802e-06
270.9799999999993,-1.783409843516461e-06
270.99999999999926,-1.972540488813956e-06
271.01999999999924,-2.210150935622265e-06
271.0399999999992,-2.481687892690238e-06
271.0599999999992,-2.7634927092710345e-06
271.0799999999992,-3.0275433714184107e-06
271.09999999999917,-3.2497665478890116e-06
271.11999999999915,-3.4171124161531647e-06
271.13999999999913,-3.52917187237381e-06
271.1599999999991,-3.593632543992017e-06
271.1799999999991,-3.61933178965006e-06
271.1999999999991,-3.6127919440741856e-06
271.21999999999906,-3.5802633141963786e-06
271.23999999999904,-3.5318568109446737e-06
271.259999999999,-3.4834886387906454e-06
271.279999999999,-3.4545157197471822e-06
271.299999999999,-3.461525175401505e-06
271.31999999999897,-3.5117376644978208e-06
271.33999999999895,-3.600219492188192e-06
271.35999999999893,-3.6776104193765976e-06
271.3799999999989,-3.6679671482864616e-06
271.3999999999989,-3.766894014596866e-06
271.4199999999989,-3.8008726600782724e-06
271.43999999999886,-3.635891403584896e-06
271.45999999999884,-3.5884387284319607e-06
271.4799999999988,-3.536236721303797e-06
271.4999999999988,-3.477290834436107e-06
271.5199999999988,-3.3736586194617858e-06
271.53999999999877,-3.236586875021942e-06
271.55999999999875,-3.049471312775062e-06
271.57999999999873,-2.831412361155953e-06
271.5999999999987,-2.5986851398685025e-06
271.6199999999987,-2.317776710436906e-06
271.6399999999987,-1.951871393745366e-06
271.65999999999866,-1.7368972191595073e-06
271.67999999999864,-1.5575167227036214e-06
271.6999999999986,-1.440027082989854e-06
271.7199999999986,-1.4947428148375766e-06
271.7399999999986,-1.8363705973335788e-06
271.75999999999857,-2.120716899759304e-06
271.77999999999855,-2.3534597466353665e-06
271.79999999999853,-2.6189738055304243e-06
271.8199999999985,-2.9032176132323562e-06
271.8399999999985,-2.9718664774496573e-06
271.8599999999985,-3.1350685466215696e-06
271.87999999999846,-3.3498327557096713e-06
271.89999999999844,-3.4886286100115656e-06
271.9199999999984,-3.544124320625362e-06
271.9399999999984,-3.524620034060077e-06
271.9599999999984,-3.450501590384732e-06
271.97999999999837,-3.345640305374369e-06
271.99999999999835,-3.2302672880901965e-06
272.01999999999833,-3.1191323930875714e-06
272.0399999999983,-3.023786434254014e-06
272.0599999999983,-2.8933566751520333e-06
272.0799999999983,-2.7513813189514965e-06
272.09999999999826,-2.66442812010352e-06
272.11999999999824,-2.640503878733396e-06
272.1399999999982,-2.675090413377834e-06
272.1599999999982,-2.754704487523853e-06
272.1799999999982,-2.863550307260352e-06
272.19999999999817,-2.987803784932118e-06
272.21999999999815,-3.11516548761519e-06
272.23999999999813,-3.2317360451298486e-06
272.2599999999981,-3.3194116967365756e-06
272.2799999999981,-3.3569038066562164e-06
272.2999999999981,-3.3259363157855226e-06
272.31999999999806,-3.2194178726511207e-06
272.33999999999804,-3.0453851982754267e-06
272.359999999998,-2.8234799239256557e-06
272.379999999998,-2.76152151764009e-06
272.399999999998,-2.731157800775034e-06
272.41999999999797,-2.564987621146217e-06
272.43999999999795,-2.4022377784284514e-06
272.45999999999793,-2.286923307998177e-06
272.4799999999979,-2.224804856696536e-06
272.4999999999979,-2.220876908738389e-06
272.5199999999979,-2.2242159769661073e-06
272.53999999999786,-2.1481036424921813e-06
272.55999999999784,-2.086585289286911e-06
272.5799999999978,-2.2188747776138917e-06
272.5999999999978,-2.5063814379306814e-06
272.6199999999978,-2.7390175215301036e-06
272.63999999999777,-2.7336158632553512e-06
272.65999999999775,-2.5679427459559444e-06
272.67999999999773,-2.27403431080662e-06
272.6999999999977,-2.416849093609092e-06
272.7199999999977,-2.340566365362066e-06
272.7399999999977,-2.4050320350464967e-06
272.75999999999766,-2.4386629550110525e-06
272.77999999999764,-2.4471028648797594e-06
272.7999999999976,-2.4353692133922436e-06
272.8199999999976,-2.4090441224075837e-06
272.8399999999976,-2.3763068507726877e-06
272.85999999999757,-2.34865423316685e-06
272.87999999999755,-2.339356336858503e-06
272.89999999999753,-2.3598178519317946e-06
272.9199999999975,-2.4156885155188377e-06
272.9399999999975,-2.505340834633298e-06
272.9599999999975,-2.831306275197445e-06
272.97999999999746,-3.2659826838358967e-06
272.99999999999744,-3.66511007332303e-06
273.0199999999974,-3.842966794386174e-06
273.0399999999974,-3.864104714789206e-06
273.0599999999974,-3.867940196637665e-06
273.07999999999737,-3.846213524640891e-06
273.09999999999735,-3.8780524178839245e-06
273.11999999999733,-3.8433925043830285e-06
273.1399999999973,-3.7477202362954144e-06
273.1599999999973,-3.6080375906041194e-06
273.1799999999973,-3.4483294347853236e-06
273.19999999999726,-3.3707853457510214e-06
273.21999999999724,-3.1909643051444285e-06
273.2399999999972,-2.991405385702988e-06
273.2599999999972,-2.892045172361921e-06
273.2799999999972,-2.8026051205596313e-06
273.29999999999717,-2.772105053819173e-06
273.31999999999715,-2.7987537476829815e-06
273.33999999999713,-2.7924132882616375e-06
273.3599999999971,-2.7988439453476865e-06
273.3799999999971,-2.854248944399129e-06
273.3999999999971,-2.923680664656457e-06
273.41999999999706,-3.0014253872698465e-06
273.43999999999704,-3.0802649378368086e-06
273.459999999997,-3.1504649471334913e-06
273.479999999997,-3.145634011886362e-06
273.499999999997,-3.0225733208569007e-06
273.51999999999697,-2.845316745479996e-06
273.53999999999695,-2.729101966981992e-06
273.55999999999693,-2.691410554055484e-06
273.5799999999969,-2.638937113445654e-06
273.5999999999969,-2.574041585499403e-06
273.6199999999969,-2.499084452645177e-06
273.63999999999686,-2.2161326241449905e-06
273.65999999999684,-1.9586900728741024e-06
273.6799999999968,-1.7837107741434172e-06
273.6999999999968,-1.7180663604531477e-06
273.7199999999968,-1.7730457030882279e-06
273.73999999999677,-1.940483976498147e-06
273.75999999999675,-2.26115045920607e-06
273.77999999999673,-2.4368527837457315e-06
273.7999999999967,-2.42218746180674e-06
273.8199999999967,-2.3212993345443945e-06
273.8399999999967,-2.204446381240565e-06
273.85999999999666,-2.2229769196162067e-06
273.87999999999664,-2.200236722321974e-06
273.8999999999966,-2.179764043997909e-06
273.9199999999966,-2.147596411576213e-06
273.9399999999966,-2.0897207922744816e-06
273.95999999999657,-1.988733682844525e-06
273.97999999999655,-1.8561856205040996e-06
273.99999999999653,-1.6235061842777508e-06
274.0199999999965,-1.380429049691302e-06
274.0399999999965,-1.1814668344448731e-06
274.0599999999965,-1.104521339808583e-06
274.07999999999646,-8.915768115380002e-07
274.09999999999644,-7.280165405993865e-07
274.1199999999964,-6.798717459565924e-07
274.1399999999964,-6.835726019505362e-07
274.1599999999964,-7.244284378203958e-07
274.17999999999637,-7.902267819582718e-07
274.19999999999635,-8.708780865185178e-07
274.21999999999633,-8.154540448102217e-07
274.2399999999963,-7.384650419970004e-07
274.2599999999963,-6.494680609396736e-07
274.2799999999963,-1.0322411734479203e-06
274.29999999999626,-1.0587180984527263e-06
274.31999999999624,-8.984775615667812e-07
274.3399999999962,-7.391620557308342e-07
274.3599999999962,-5.92756199143983e-07
274.3799999999962,-4.7312204975158823e-07
274.39999999999617,-3.9218498663771945e-07
274.41999999999615,-3.55268823112808e-07
274.43999999999613,-3.591322618876036e-07
274.4599999999961,-3.9434905014984e-07
274.4799999999961,-4.500536278654754e-07
274.4999999999961,-3.8390287833344013e-07
274.51999999999606,-3.4142559636596516e-07
274.53999999999604,-3.415409396741588e-07
274.559999999996,-3.7657829384802266e-07
274.579999999996,-4.370912850101576e-07
274.599999999996,-5.146443802104065e-07
274.61999999999597,-6.016250383313107e-07
274.63999999999595,-6.350590737861539e-07
274.65999999999593,-5.383533856411931e-07
274.6799999999959,-5.457576012117294e-07
274.6999999999959,-5.703579002434835e-07
274.7199999999959,-5.620435557537394e-07
274.73999999999586,-5.231521649048895e-07
274.75999999999584,-4.6093350804914263e-07
274.7799999999958,-3.8391702166262303e-07
274.7999999999958,-2.993171477730104e-07
274.8199999999958,-2.128143335697206e-07
274.83999999999577,-2.1629248919599388e-07
274.85999999999575,-3.7718379886239575e-07
274.87999999999573,-5.420925610318065e-07
274.8999999999957,-4.568468512453251e-07
274.9199999999957,-5.817150735456415e-07
274.9399999999957,-7.041651922329702e-07
274.95999999999566,-8.138083447858548e-07
274.97999999999564,-8.984897582590465e-07
274.9999999999956,-9.475156598067606e-07
275.0199999999956,-9.553533543123256e-07
275.0399999999956,-9.228337920761731e-07
275.05999999999557,-9.607614976143574e-07
275.07999999999555,-1.0350733786202586e-06
275.09999999999553,-7.658022504672146e-07
275.1199999999955,-6.516915782730109e-07
275.1399999999955,-5.01742597152329e-07
275.1599999999955,-3.2727192577365886e-07
275.17999999999546,-1.4086459165187093e-07
275.19999999999544,-6.8634777880288735e-09
275.2199999999954,1.0425596027948211e-07
275.2399999999954,2.173528325802052e-07
275.2599999999954,1.9421297921591388e-07
275.27999999999537,2.170920986202919e-07
275.29999999999535,2.313864356236155e-07
275.31999999999533,2.371414939867048e-07
275.3399999999953,2.3533637266177198e-07
275.3599999999953,2.2770873120760414e-07
275.3799999999953,2.1608328270679154e-07
275.39999999999526,2.0181544947074637e-07
275.41999999999524,2.017368991539739e-07
275.4399999999952,4.934811758587018e-07
275.4599999999952,5.453581372330548e-07
275.4799999999952,6.0132595775327e-07
275.49999999999517,6.139470339603504e-07
275.51999999999515,6.109149629671795e-07
275.53999999999513,6.763532846631872e-07
275.5599999999951,7.150564841129686e-07
275.5799999999951,7.276972671348646e-07
275.5999999999951,7.144875445926043e-07
275.61999999999506,6.829389220263933e-07
275.63999999999504,7.749212577380627e-07
275.659999999995,8.62447158400144e-07
275.679999999995,9.315657141837725e-07
275.699999999995,9.709833624495946e-07
275.71999999999497,9.755074428239156e-07
275.73999999999495,9.470975457072717e-07
275.75999999999493,8.926104800274458e-07
275.7799999999949,8.201240349825009e-07
275.7999999999949,7.370856314654283e-07
275.8199999999949,6.51416312109943e-07
275.83999999999486,6.317599387172718e-07
275.85999999999484,6.737971541542221e-07
275.8799999999948,6.980506777378555e-07
275.8999999999948,6.560368751157787e-07
275.9199999999948,6.703883784942942e-07
275.93999999999477,6.919469655567441e-07
275.95999999999475,7.208342397999374e-07
275.97999999999473,7.162187197695071e-07
275.9999999999947,7.355744716513307e-07
276.0199999999947,7.174880711114089e-07
276.0399999999947,5.812474875208561e-07
276.05999999999466,4.6637758141383985e-07
276.07999999999464,3.863265817575133e-07
276.0999999999946,3.535419395552522e-07
276.1199999999946,3.749727541990055e-07
276.1399999999946,4.505377957413538e-07
276.15999999999457,5.761082568816463e-07
276.17999999999455,4.655448077400392e-07
276.19999999999453,5.110217170475151e-07
276.2199999999945,1.0453980014068482e-06
276.2399999999945,1.2888175414419333e-06
276.2599999999945,1.4502074885803262e-06
276.27999999999446,1.419539505604196e-06
276.29999999999444,1.4108202903088397e-06
276.3199999999944,1.4268714279576962e-06
276.3399999999944,1.8436899089817604e-06
276.3599999999944,1.8324712134875629e-06
276.37999999999437,1.8094773660439877e-06
276.39999999999435,1.7423051572703088e-06
276.41999999999433,1.351103101178802e-06
276.4399999999943,1.2516059696155075e-06
276.4599999999943,1.2674267102533472e-06
276.4799999999943,1.3025449720838384e-06
276.49999999999426,1.3582472183618041e-06
276.51999999999424,1.4344853086692122e-06
276.5399999999942,1.5285319207895508e-06
276.5599999999942,1.8478341743882242e-06
276.5799999999942,2.0578496845184217e-06
276.59999999999417,2.0624280385003235e-06
276.61999999999415,1.849507235176655e-06
276.63999999999413,1.8671802007635022e-06
276.6599999999941,1.904552936477418e-06
276.6799999999941,1.9659683402087536e-06
276.6999999999941,2.055148511405635e-06
276.71999999999406,2.1726012544000264e-06
276.73999999999404,2.31401304581156e-06
276.759999999994,2.4712899563169237e-06
276.779999999994,2.6355092524234814e-06
276.799999999994,2.7995468649407425e-06
276.81999999999397,2.8400075315651194e-06
276.83999999999395,2.460756183023254e-06
276.85999999999393,1.941190942703808e-06
276.8799999999939,1.832568539844006e-06
276.8999999999939,1.6054195376023113e-06
276.9199999999939,1.259759645286665e-06
276.93999999999386,8.249550070013566e-07
276.95999999999384,3.5810748284093944e-07
276.9799999999938,1.742224441430853e-07
276.9999999999938,2.1877009053221068e-07
277.0199999999938,5.943539116885901e-07
277.03999999999377,9.83211511426814e-07
277.05999999999375,1.3646456456565184e-06
277.07999999999373,1.7142407185442374e-06
277.0999999999937,2.0105076009204712e-06
277.1199999999937,2.2413504385270754e-06
277.1399999999937,2.3753675994873896e-06
277.15999999999366,2.3402824836465648e-06
277.17999999999364,2.4453342975072918e-06
277.1999999999936,2.644284504246103e-06
277.2199999999936,2.76950401160924e-06
277.2399999999936,2.7602439181205143e-06
277.25999999999357,2.663469054963155e-06
277.27999999999355,2.5895745881566734e-06
277.29999999999353,2.548371381536406e-06
277.3199999999935,2.5440716505485468e-06
277.3399999999935,2.5734900784519876e-06
277.3599999999935,2.582982902773107e-06
277.37999999999346,2.490338571221894e-06
277.39999999999344,2.4336408301730513e-06
277.4199999999934,2.6988377587951787e-06
277.4399999999934,2.8260827650750183e-06
277.4599999999934,2.78780440392951e-06
277.47999999999337,2.763237024303545e-06
277.49999999999335,2.7570471284148605e-06
277.51999999999333,2.7106347827666378e-06
277.5399999999933,2.6913185290066227e-06
277.5599999999933,2.6706815580219025e-06
277.5799999999933,2.6450185651232725e-06
277.59999999999326,2.535601867422296e-06
277.61999999999324,2.3421728946064446e-06
277.6399999999932,2.1840392364089325e-06
277.6599999999932,2.0791984418329892e-06
277.6799999999932,2.0492125109753344e-06
277.69999999999317,2.1129695699456182e-06
277.71999999999315,2.2758728307265967e-06
277.73999999999313,2.25024254207206e-06
277.7599999999931,2.2126062590580355e-06
277.7799999999931,2.181114348070068e-06
277.7999999999931,2.500814609041091e-06
277.81999999999306,2.698448557218344e-06
277.83999999999304,2.7207870584290126e-06
277.859999999993,2.7202608425615245e-06
277.879999999993,2.691427975947081e-06
277.899999999993,2.629979464324995e-06
277.91999999999297,2.536041586883401e-06
277.93999999999295,2.4272392523459294e-06
277.95999999999293,2.327718453982774e-06
277.9799999999929,2.223445008636361e-06
277.9999999999929,1.8295032387407228e-06
278.0199999999929,1.6329408937822545e-06
278.03999999999286,1.6377217316684676e-06
278.05999999999284,1.6608600824018948e-06
278.0799999999928,1.7057660309296407e-06
278.0999999999928,1.7753704265985853e-06
278.1199999999928,1.8694132638295512e-06
278.13999999999277,1.9947937461543768e-06
278.15999999999275,2.328621091801093e-06
278.17999999999273,2.4696883412394467e-06
278.1999999999927,2.495629272235107e-06
278.2199999999927,2.7119212715113237e-06
278.2399999999927,2.889560955635501e-06
278.25999999999266,3.024515611982678e-06
278.27999999999264,3.114196429085981e-06
278.2999999999926,3.1563628614448166e-06
278.3199999999926,3.079843807063243e-06
278.3399999999926,3.0927848807973164e-06
278.35999999999257,3.0569969784149373e-06
278.37999999999255,2.999512067326597e-06
278.39999999999253,2.957653866370375e-06
278.4199999999925,2.908384742240105e-06
278.4399999999925,2.7523208118683046e-06
278.4599999999925,2.645486474209743e-06
278.47999999999246,2.592576807221671e-06
278.49999999999244,2.5976837882882468e-06
278.5199999999924,2.5959472425521783e-06
278.5399999999924,2.526340401912647e-06
278.5599999999924,2.5294178031938555e-06
278.57999999999237,2.6104550447193434e-06
278.59999999999235,2.66736085882622e-06
278.61999999999233,2.6915476376624063e-06
278.6399999999923,2.7051590444929063e-06
278.6599999999923,2.847511792697428e-06
278.6799999999923,2.950549626632102e-06
278.69999999999226,2.835596087758533e-06
278.71999999999224,2.71702295751039e-06
278.7399999999922,2.634466380226071e-06
278.7599999999922,2.5188595841507342e-06
278.7799999999922,2.443355094724076e-06
278.79999999999217,2.4233660044216067e-06
278.81999999999215,2.466344651836085e-06
278.83999999999213,2.5694922512920143e-06
278.8599999999921,2.7231568875408606e-06
278.8799999999921,2.916636196607352e-06
278.8999999999921,3.140976043796487e-06
278.91999999999206,3.3871107841613575e-06
278.93999999999204,3.548908437762079e-06
278.959999999992,3.6903321145348897e-06
278.979999999992,3.926280302052407e-06
278.999999999992,4.202652697170467e-06
279.01999999999197,4.396361646656966e-06
279.03999999999195,4.461142686207349e-06
279.05999999999193,4.389235157708127e-06
279.0799999999919,4.453510989823677e-06
279.0999999999919,4.400016085981359e-06
279.1199999999919,4.322942502929294e-06
279.13999999999186,4.234045627971947e-06
279.15999999999184,4.150296886508697e-06
279.1799999999918,4.091463855522826e-06
279.1999999999918,4.074605864797905e-06
279.2199999999918,4.10848612860464e-06
279.23999999999177,4.191677715038717e-06
279.25999999999175,4.315698652794086e-06
279.27999999999173,4.470382856725013e-06
279.2999999999917,4.646809193581425e-06
279.3199999999917,4.8361240026543395e-06
279.3399999999917,5.026643189686599e-06
279.35999999999166,5.20224002120079e-06
279.37999999999164,5.505906345947379e-06
279.3999999999916,5.71482348953106e-06
279.4199999999916,5.758105497196997e-06
279.4399999999916,5.771310610579032e-06
279.45999999999157,5.758488223542561e-06
279.47999999999155,5.724180013383505e-06
279.49999999999153,5.672184017671209e-06
279.5199999999915,5.6066249618034066e-06
279.5399999999915,5.533651964426811e-06
279.5599999999915,5.4618998667416505e-06
279.57999999999146,5.401032910901927e-06
279.59999999999144,5.358883424192749e-06
279.6199999999914,5.255248939900399e-06
279.6399999999914,4.975031766292317e-06
279.6599999999914,5.125679445429311e-06
279.67999999999137,5.296297009618195e-06
279.69999999999135,5.29337288133274e-06
279.71999999999133,5.081354439530263e-06
279.7399999999913,5.385573600607051e-06
279.7599999999913,5.452917447613138e-06
279.7799999999913,5.317892222881452e-06
279.79999999999126,5.174459847234041e-06
279.81999999999124,5.023658016997814e-06
279.8399999999912,4.868306281206851e-06
279.8599999999912,4.713234358734468e-06
