energy,n_xx,n_ixx,n_zz,n_izz
10.0,-0.2204654350764022,0.24033561840410245,-0.21204943186976696,0.24033561840410245
10.1617,-0.23400405620559317,0.24266043411959062,-0.22520037184998337,0.24266043411959062
10.18225,-0.22545838462190645,0.2429895991069732,-0.21693241962659443,0.2429895991069732
10.2028,-0.2179567808165015,0.24331414595489145,-0.20967523299452667,0.24331414595489145
10.2439,-0.20536211823903375,0.24394957533797235,-0.19749255884094305,0.24394957533797235
10.285,-0.19515628163789497,0.24456709711085356,-0.18762246251071746,0.24456709711085356
10.3261,-0.1867271132191838,0.24516707767929763,-0.17947229482981694,0.24516707767929763
10.36785,-0.17950411414754677,0.24586805429783717,-0.17248989965194136,0.24586805429783717
10.4096,-0.1732905839166836,0.2465499203244838,-0.16648468090866936,0.2465499203244838
10.4931,-0.16328740561086402,0.24785787190688208,-0.15682051967127214,0.24785787190688208
10.57795,-0.1555022730624373,0.24933049607749763,-0.14930356350110238,0.24933049607749763
10.6628,-0.14948778466935145,0.2507250425125018,-0.14350035141929454,0.2507250425125018
10.74905,-0.14469092054331711,0.2524228043937281,-0.13887581305152757,0.2524228043937281
10.8353,-0.1409809903393308,0.2540349506279311,-0.1353031099710843,0.2540349506279311
11.0106,-0.13532414334234244,0.25831422345693145,-0.12986378782569866,0.25831422345693145
11.1886,-0.13113721720895138,0.2629583077851241,-0.1258463428907613,0.2629583077851241
11.3696,-0.12778363064621245,0.268069158193457,-0.12263456760704604,0.268069158193457
11.5535,-0.12478762146500058,0.2733831059879546,-0.11976786645181621,0.2733831059879546
11.7404,-0.121887446132402,0.27889719439158117,-0.11699288101673598,0.27889719439158117
11.9303,-0.11857195928771097,0.2845850496165663,-0.11381477902865123,0.2845850496165663
12.1232,-0.11524184941743373,0.28935802693399637,-0.11062150654747166,0.28935802693399637
12.3193,-0.1124082322308349,0.2942284957920333,-0.1079079479207356,0.2942284957920333
12.5186,-0.10964617930428631,0.2994975747734156,-0.10526273700405754,0.2994975747734156
12.721,-0.10640530709504446,0.3053128595720496,-0.10215303716340074,0.3053128595720496
12.9268,-0.10236243222963734,0.31125836348474806,-0.09826602626681227,0.31125836348474806
13.1359,-0.09730745258860364,0.31738701123079627,-0.09339830397208933,0.31738701123079627
13.2421,-0.0941530037038548,0.3205941631814204,-0.09035719621587228,0.3205941631814204
13.2952,-0.0922786817255668,0.3221442002259711,-0.0885488969706799,0.3221442002259711
13.3483,-0.08997553259248912,0.3236594752729202,-0.08632536027710083,0.3236594752729202
13.45625,-0.08565147472561895,0.3250096612256091,-0.08215151233550642,0.3250096612256091
13.5642,-0.08202314731701961,0.32627603747789213,-0.07865092977049143,0.32627603747789213
13.7836,-0.07578804048964978,0.32826004319003926,-0.07263828162618748,0.32826004319003926
14.0066,-0.07005130262797722,0.3310539508028819,-0.0671073760340357,0.3310539508028819
14.2331,-0.06379973412633226,0.3340093288288414,-0.06107730716322075,0.3340093288288414
14.3482,-0.060364949165729466,0.335558005218198,-0.05776289809123539,0.335558005218198
14.4633,-0.05652913293626765,0.33701527360342054,-0.05405997692446313,0.33701527360342054
14.5803,-0.05244692258598217,0.3379941279685297,-0.050118431265188966,0.3379941279685297
14.6973,-0.04809113833012596,0.3388992225612813,-0.045911777448182804,0.3388992225612813
14.81615,-0.0438291036646105,0.3386909692113853,-0.041795799615169764,0.3386909692113853
14.935,-0.04027187160996728,0.33844639561013584,-0.03836192200358428,0.33844639561013584
15.1765,-0.03375773767971542,0.338218192094046,-0.03207496794284151,0.338218192094046
15.422,-0.027612214005666998,0.33810219993837687,-0.026144266401510904,0.33810219993837687
15.6714,-0.02162785422423246,0.33805778833347405,-0.020368988146675718,0.33805778833347405
15.9,-0.016140969270743828,0.33808744429043747,-0.015073044517045026,0.33808744429043747
15.9249,-0.015499670142054106,0.33808215753315146,-0.014453892507658602,0.33808215753315146
16.1,-0.011321483931812317,0.3376035808060742,-0.010420660502951238,0.3376035808060742
16.1825,-0.009244957108503348,0.3373578187425698,-0.00841573713670074,0.3373578187425698
16.247925000000002,-0.007751795717398429,0.33651965203608525,-0.0069744066223093966,0.33651965203608525
16.31335,-0.0068007722499795545,0.3356840519975094,-0.006057887597287235,0.3356840519975094
16.378774999999997,-0.006286469952337914,0.3348510374772285,-0.005564123257902105,0.3348510374772285
16.4114875,-0.006243433418893658,0.33443550537912786,-0.0055245142898335325,0.33443550537912786
16.4442,-0.0065054053198144906,0.33402062623929296,-0.005780182309922253,0.33402062623929296
16.577199999999998,-0.00764099468880043,0.334251901664818,-0.006887771606719397,0.334251901664818
16.61045,-0.008159655012115971,0.33430187216841484,-0.0073919204537928615,0.33430187216841484
16.6437,-0.008967801827054233,0.3343487757461847,-0.00817631914786678,0.3343487757461847
16.676949999999998,-0.01030496574837003,0.3343926478581869,-0.009472865684126813,0.3343926478581869
16.693575,-0.011372234417021634,0.3344134580812932,-0.010507116927088922,0.3344134580812932
16.701887499999998,-0.012122810845478005,0.3344235836382193,-0.011234270607234288,0.3344235836382193
16.7102,-0.013333760460557943,0.33443352354628925,-0.012407126805135293,0.33443352354628925
16.718646875,-0.014542354801224367,0.33542808600939283,-0.013577710009179938,0.33542808600939283
16.72709375,-0.015252346969215513,0.33642046947125154,-0.014265578390820925,0.33642046947125154
16.7439875,-0.016142543347624418,0.3383987196852116,-0.015128406778875114,0.3383987196852116
16.760881249999997,-0.016604367330061726,0.3403683146380971,-0.0155765099694889,0.3403683146380971
16.777775,-0.016762861233033364,0.342329294559959,-0.015730945779744283,0.342329294559959
16.8115625,-0.01637121770224648,0.3462255691397761,-0.015353757847615073,0.3462255691397761
16.84535,-0.01517770037973706,0.350087860920192,-0.014200236197397955,0.350087860920192
16.8791375,-0.013229412869556225,0.35391648396676567,-0.012315983557444298,0.35391648396676567
16.912925,-0.010466637469305628,0.35771174895819574,-0.00964318524168537,0.35771174895819574
16.929818750000003,-0.008719467815844262,0.3595969683546994,-0.00795265552870463,0.3595969683546994
16.9467125,-0.006653580348076005,0.361473963228809,-0.005953561154311392,0.361473963228809
16.963606249999998,-0.004128924024189193,0.36334277148162925,-0.0035103138560628666,0.36334277148162925
16.972053125,-0.0025771243305614745,0.36427411741338284,-0.00200844169855275,0.36427411741338284
16.976276562499997,-0.001660542592703566,0.3647390278859209,-0.001121306331938202,0.3647390278859209
16.9805,-0.0004672238193332452,0.3652034308104414,3.37479398628802e-05,0.3652034308104414
16.989081249999998,0.0016771081189958623,0.3650067063205674,0.0021092649597059814,0.3650067063205674
16.997662499999997,0.003271162409122403,0.3648101928344214,0.003652039829641002,0.3648101928344214
17.014825,0.0059259785196610765,0.3644177975215056,0.006221292824117627,0.3644177975215056
17.049149999999997,0.010217242946122392,0.3636355241107288,0.010373890367050711,0.3636355241107288
17.083475,0.01378952652242612,0.36285658914380314,0.013830429191514868,0.36285658914380314
17.1178,0.01692925771307975,0.3620809713678031,0.016868210539905285,0.3620809713678031
17.18645,0.022381621612344648,0.36053960327235524,0.022143064621227348,0.36053960327235524
17.2551,0.027100787452386896,0.359011253356665,0.02670812911645457,0.359011253356665
17.324875,0.031410052127536905,0.3575059198285066,0.03087633832261968,0.3575059198285066
17.39465,0.03538453457771849,0.35601313787145467,0.03472047815515712,0.35601313787145467
17.5342,0.04264846283320477,0.3530646068055224,0.041745681966071264,0.3530646068055224
17.8178,0.05573558202950852,0.3469607257932424,0.054401549745612766,0.3469607257932424
17.9619,0.061705929980617684,0.34323263412864646,0.06017467901234778,0.34323263412864646
18.106,0.0669040420535459,0.33957879957594894,0.06520034574390725,0.33957879957594894
18.3989,0.07623017737884515,0.33249810930941703,0.07421595676335105,0.33249810930941703
18.6964,0.08476341384923565,0.32571316513174314,0.08246436230863238,0.32571316513174314
18.9988,0.09269996426761297,0.3186934248690486,0.09013549964266401,0.3186934248690486
19.3061,0.0999405258137791,0.31169742039258785,0.09713322088943085,0.31169742039258785
19.6184,0.10675716453284384,0.3049290630920519,0.10372090943051215,0.3049290630920519
19.9357,0.11351527465849875,0.2983645763803644,0.11025230697892296,0.2983645763803644
20.09695,0.11707024773802248,0.29517024194823416,0.1136884301769876,0.29517024194823416
20.177575,0.11897131599169528,0.2935969984876344,0.11552618546950784,0.2935969984876344
20.2582,0.12115331558686285,0.2920393997877697,0.11763595273559159,0.2920393997877697
20.3401,0.12334944701161292,0.28985831110945465,0.1197593916229272,0.28985831110945465
20.422,0.12524031910019867,0.28770274642947496,0.12158733092622746,0.28770274642947496
20.5858,0.12888364099412897,0.2834665901915369,0.1251092937630562,0.2834665901915369
20.66905,0.13066303265318732,0.2810280530816624,0.1268293572805939,0.2810280530816624
20.7523,0.1322039985891233,0.2786194436269132,0.12831862414443976,0.2786194436269132
20.9188,0.1349237784734257,0.2738900875089143,0.13094663864927603,0.2738900875089143
21.2571,0.13952405564292822,0.26468297409409824,0.1353903334149036,0.26468297409409824
21.6009,0.14338884868204144,0.25582594248974705,0.1391222953287494,0.25582594248974705
21.9503,0.1468985089378563,0.2473051458022572,0.1425107455742802,0.2473051458022572
22.3053,0.1501408011807459,0.2387383826741035,0.14564064501021148,0.2387383826741035
22.6661,0.15299444633157605,0.23016123995906065,0.14839456703831122,0.23016123995906065
23.0327,0.15573723785528418,0.22170733597011802,0.15104144640225362,0.22170733597011802
23.12585,0.15646402786355465,0.21933845967627838,0.15174297838807327,0.21933845967627838
23.219,0.1570120017880118,0.2170003844113202,0.15227141753413254,0.2170003844113202
23.4053,0.15785991228227728,0.21241460717525668,0.15308823630168591,0.21241460717525668
23.7838,0.15905787389902135,0.2035379126973887,0.15424004281713513,0.2035379126973887
24.1685,0.1597702427088688,0.1948083355379437,0.15492198069188046,0.1948083355379437
24.363950000000003,0.15992280248175703,0.1904418077118583,0.15506589085695885,0.1904418077118583
24.5594,0.1598863461325108,0.1861890506570138,0.1550268980739319,0.1861890506570138
24.9566,0.15945168939170887,0.17795945487419093,0.15459884238916335,0.17795945487419093
25.3603,0.15865678252089194,0.17010402623654475,0.15382224383045767,0.17010402623654475
25.7705,0.15761236873819773,0.16260574209861658,0.1528043113842736,0.16260574209861658
26.1873,0.1564560858925363,0.15542754166463274,0.15167829004175484,0.15542754166463274
26.3991,0.15582487504968498,0.15181034056617243,0.15106396623697943,0.15181034056617243
26.6109,0.15508104747453505,0.14828814844645913,0.15034069104544734,0.14828814844645913
27.0413,0.15345296856232024,0.14148811556786803,0.14875831705665316,0.14148811556786803
27.4786,0.15168718552768157,0.13486194793877204,0.14704282290002754,0.13486194793877204
27.700850000000003,0.15071754865085094,0.13155950468208605,0.14610115341779026,0.13155950468208605
27.9231,0.14965162990675812,0.1283446969443596,0.1450663398576637,0.1283446969443596
28.3747,0.14733699522115148,0.1221500574359345,0.14281985487313809,0.1221500574359345
28.8337,0.14485717329615716,0.11626042458436608,0.1404136225217188,0.11626042458436608
29.3,0.14226437989764731,0.11066258993684085,0.1378981916653164,0.11066258993684085
29.7739,0.13961615806394204,0.10534035691251246,0.1353292642178938,0.10534035691251246
30.2555,0.13688335844158878,0.10018535070142327,0.13267861474421594,0.10018535070142327
30.7449,0.13404360269591808,0.09529394396036121,0.12992457320219192,0.09529394396036121
31.2421,0.13114807274665807,0.09064697214419688,0.12711668682333585,0.09064697214419688
31.7475,0.12821196479523003,0.08623084177588752,0.12426966031316887,0.08623084177588752
32.2609,0.12524469133979002,0.08203704453830918,0.12139260454398691,0.08203704453830918
32.7827,0.12226117533552694,0.07807372358849539,0.11849996017142139,0.07807372358849539
33.313,0.11929647288422111,0.07433242817141429,0.1156256622672366,0.07433242817141429
33.8518,0.11636131100425748,0.07077148970328646,0.1127800928803612,0.07077148970328646
34.3993,0.11344275473069236,0.06738113144258724,0.10995072467158605,0.06738113144258724
34.9557,0.1105262060281599,0.06415827884882545,0.10712342045415268,0.06415827884882545
35.5211,0.10764199033128387,0.06114661399674326,0.10432753584036542,0.06114661399674326
36.0956,0.1048194782853813,0.0582899230316979,0.10159150215777907,0.0582899230316979
36.6794,0.10203389030646808,0.05557116288076543,0.09889132553688426,0.05557116288076543
36.9397,0.10080089263304388,0.05441865031163154,0.09769617411467822,0.05441865031163154
37.06985,0.10017615786935476,0.05385245689620526,0.09709063631835103,0.05385245689620526
37.2,0.09949671435434032,0.05329284105033527,0.09643214054105828,0.05329284105033527
37.2727,0.09911482758104595,0.05307824223905223,0.09606203326381701,0.05307824223905223
37.4,0.09861721450941967,0.05271064183324203,0.09557960033306229,0.05271064183324203
37.63775,0.09772792575580107,0.05172984913386693,0.0947174040447415,0.05172984913386693
37.8755,0.09676112516869224,0.05076945158727933,0.09378018928643711,0.05076945158727933
38.4882,0.09428120336011747,0.04841295862591856,0.09137624679847904,0.04841295862591856
39.1107,0.09185806896898656,0.046170123189501255,0.08902737920773238,0.046170123189501255
39.7432,0.08948929348050377,0.043966664961385044,0.08673123210178726,0.043966664961385044
40.3861,0.08711540960979562,0.04181351386057691,0.08443022916347291,0.04181351386057691
41.0393,0.08473726171799288,0.03977095927899348,0.08212518616738283,0.03977095927899348
41.7031,0.08238241875896145,0.03783238252743814,0.07984279026061956,0.03783238252743814
42.3776,0.08005957391657868,0.03599325508998395,0.07759145522571168,0.03599325508998395
43.063,0.07777323057227387,0.03424818594392412,0.07537553825036371,0.03424818594392412
43.7595,0.07552645261672114,0.03259212511640715,0.07319800301164998,0.03259212511640715
44.4673,0.07331357485539179,0.031013488554765548,0.07105336235982641,0.031013488554765548
45.1865,0.07109999570610619,0.029510145012935113,0.0689081152210478,0.029510145012935113
45.9174,0.068948203837087,0.028189188952692918,0.06682275642652331,0.028189188952692918
46.66,0.06690605081324051,0.02691705940615689,0.06484361107899766,0.02691705940615689
47.4147,0.06492577253238492,0.02569766570006744,0.06292443438008323,0.02569766570006744
48.1816,0.06299958518117307,0.024535236787098763,0.06105768875783034,0.024535236787098763
48.9609,0.061125353880884095,0.023427045658525894,0.0592413053612407,0.023427045658525894
49.7528,0.0593000091736656,0.022370490828422015,0.05747231061309703,0.022370490828422015
50.5576,0.057519979877620434,0.021363024070972066,0.05574724505499911,0.021363024070972066
51.3753,0.05578115997472244,0.02040254406163055,0.054062132149941086,0.02040254406163055
52.2062,0.05407468782448731,0.019486791934149816,0.052408390679726774,0.019486791934149816
52.6284,0.05322285528861635,0.019044442961496044,0.05158289537462729,0.019044442961496044
53.0506,0.052356150778443425,0.018613651124791304,0.050743021360217154,0.018613651124791304
53.47965000000001,0.05150451550600626,0.018273318753705952,0.04991774283755127,0.018273318753705952
53.9087,0.05073167630133803,0.017941419766642028,0.04916876828121775,0.017941419766642028
54.7806,0.04924322977335293,0.017227112485373536,0.04772625821064317,0.017227112485373536
55.6667,0.047796216338002726,0.01653126654613452,0.046323908752936474,0.01653126654613452
56.567,0.04639528306399502,0.01586458912038834,0.04496621778047473,0.01586458912038834
57.482,0.04504240247792733,0.015225666763000878,0.04365509311195262,0.015225666763000878
58.4117,0.043739007707661294,0.014613545980515393,0.042391921171609045,0.014613545980515393
59.3564,0.04248474998019762,0.01402272894290496,0.04117636285642014,0.01402272894290496
60.3165,0.04128019712980228,0.013450937766957929,0.04000896640376432,0.013450937766957929
61.2921,0.040125418676561914,0.012885932382632921,0.03888979805738741,0.012885932382632921
62.2834,0.03899123693888469,0.012304964660871998,0.03779060872757284,0.012304964660871998
63.2908,0.03786386187925199,0.01175106451848833,0.03669804645541403,0.01175106451848833
64.3145,0.03675816149729491,0.011222842946424635,0.035626504401363994,0.011222842946424635
65.3547,0.03567740645819808,0.010719290489444824,0.034579147973299786,0.010719290489444824
66.4118,0.034622929391442896,0.010239227863392077,0.03355726614246606,0.010239227863392077
67.4859,0.03359557603226866,0.009781535478820283,0.03256167683001412,0.009781535478820283
68.5775,0.03259565925538366,0.00934505139530763,0.03159268174792982,0.00934505139530763
69.6867,0.03162291088281003,0.008927680589104356,0.030650020465949106,0.008927680589104356
70.8138,0.03067655552102178,0.008528983204858192,0.029732941355223825,0.008528983204858192
71.9591,0.02975561837525739,0.008147407394854332,0.02884049977768079,0.008147407394854332
73.123,0.0288592345372671,0.0077833521758717186,0.027971857447435775,0.0077833521758717186
74.3057,0.027987921030024274,0.007436251805350063,0.027127514152977032,0.007436251805350063
75.5076,0.027140662770855525,0.007103921767738971,0.026306486292633,0.007103921767738971
76.7289,0.026316546219824877,0.006787079422953799,0.025507888733764198,0.006787079422953799
77.9699,0.02551576323312743,0.006484963198779706,0.024731906477255924,0.006484963198779706
79.231,0.02473757696886965,0.006196262338992263,0.023977825394528116,0.006196262338992263
80.5125,0.02398145340184277,0.005920948418778921,0.02324512780005,0.005920948418778921
81.8147,0.023246799720572548,0.005657706513989608,0.022533239121273096,0.005657706513989608
83.138,0.022532428238872915,0.005406270419622981,0.02184100884618285,0.005406270419622981
84.4827,0.021837194678478864,0.00516653944254536,0.02116732856464078,0.00516653944254536
85.8491,0.021162181045584944,0.004940475832935622,0.02051324523286555,0.004940475832935622
87.2377,0.020508121550064345,0.004724883483400879,0.019879469037636575,0.004724883483400879
88.6487,0.01987381676295562,0.0045192163614156304,0.019264838292567515,0.0045192163614156304
90.0825,0.01925855878139063,0.004322971152543277,0.018668667117242486,0.004322971152543277
91.5395,0.018661758729157266,0.004135682993590084,0.018090384893328065,0.004135682993590084
93.0201,0.01808276855060942,0.0039568324316746045,0.017529363736039725,0.0039568324316746045
94.5246,0.01752108710988394,0.003786245115063167,0.01698511805499343,0.003786245115063167
96.0535,0.016976311047896174,0.003623520398588445,0.0164572568833973,0.003623520398588445
97.6071,0.016448078029788867,0.0034682758493517502,0.015945429056460476,0.0034682758493517502
99.1858,0.015936151688980167,0.003320173623243037,0.015449405356828703,0.003320173623243037
100.79,0.015439943116538731,0.003178275685936704,0.014968615283128048,0.003178275685936704
102.42,0.014958496475323326,0.0030424088302286735,0.014502133144589884,0.0030424088302286735
104.077,0.014491295555794412,0.0029128918046067214,0.014049458697640179,0.0029128918046067214
105.76,0.014038836385055474,0.0027893586408116442,0.013611072182029796,0.0027893586408116442
107.471,0.01360056734715646,0.00267100529700314,0.013186438971976761,0.00267100529700314
109.209,0.013175444658303379,0.002556484954138053,0.012774548582926823,0.002556484954138053
110.975,0.01276233629077322,0.002447214407014622,0.012374304730121138,0.002447214407014622
112.77,0.012361341235029074,0.002342901589048904,0.011985802972527947,0.002342901589048904
114.594,0.011972359418956526,0.0022433355292917037,0.011608946343131199,0.0022433355292917037
116.448,0.01159504299959999,0.002148283261248352,0.01124339787581693,0.002148283261248352
