energy,n_xx,n_zz,n_ixx,n_izz
10.0,-0.18731263708530488,-0.1858143172513837,0.24037907738726805,0.24037907738726805
10.1617,-0.19986952731206375,-0.19841855196587607,0.2427043134904113,0.2427043134904113
10.171975,-0.19591258748720028,-0.19446454451470851,0.24286950611748104,0.24286950611748104
10.18225,-0.19221348172925967,-0.19076836225979085,0.2430335379994567,0.2430335379994567
10.192525,-0.18874978223411018,-0.18730757742898962,0.2431964151463633,0.2431964151463633
10.2028,-0.1854979506928781,-0.18405865175156383,0.24335814353395702,0.24335814353395702
10.213075,-0.1824374065881486,-0.18100100474360245,0.24351872910394748,0.24351872910394748
10.22335,-0.17955029094396574,-0.17811677746598162,0.2436781777642192,0.2436781777642192
10.2439,-0.17423637168435915,-0.1728086088875724,0.24399368781933597,0.24399368781933597
10.26445,-0.16945442214539438,-0.16803237552568892,0.24430472029418918,0.24430472029418918
10.285,-0.1651262573336972,-0.1637098926600589,0.24461132125634968,0.24461132125634968
10.30555,-0.16119203793087444,-0.1597813212478815,0.24491353625287662,0.24491353625287662
10.3261,-0.1576160251976792,-0.1562109228184196,0.2452114103170164,0.2452114103170164
10.346975,-0.1542830149665139,-0.15288358146685682,0.24556437598860192,0.24556437598860192
10.36785,-0.15119295160990204,-0.14979915278351694,0.24591251369051328,0.24591251369051328
10.388725,-0.1483317910788398,-0.1469435929921741,0.24625587302100613,0.24625587302100613
10.409600000000001,-0.14567845816435182,-0.1442958271577159,0.24659450301642108,0.24659450301642108
10.430475000000001,-0.14321430422708656,-0.14183720690844587,0.24692845215844564,0.24692845215844564
10.451350000000001,-0.14092376649670618,-0.1395521697417966,0.2472577683812687,0.2472577683812687
10.472225000000002,-0.13879517745947328,-0.1374290484066175,0.24758249907863047,0.24758249907863047
10.4931,-0.13683055604276392,-0.13546986209370981,0.24790269111076946,0.24790269111076946
10.535525,-0.13319962459041354,-0.13184987720892227,0.2486490992696568,0.2486490992696568
10.577950000000001,-0.12997995100386783,-0.12864101874603012,0.24937558157045803,0.24937558157045803
10.620375000000001,-0.12715112221995095,-0.12582287573546166,0.250082543179131,0.250082543179131
10.6628,-0.12472091770756213,-0.1234032297028072,0.2507703801760328,0.2507703801760328
10.705925,-0.12254278781527914,-0.1212357041145376,0.2516303374424831,0.2516303374424831
10.74905,-0.12055782169730561,-0.11926121492535736,0.2524684490571351,0.2524684490571351
10.792175,-0.11880830680133106,-0.11752205161284496,0.2532851553495763,0.2532851553495763
10.8353,-0.11737034544678937,-0.11609431848937087,0.25408088680965946,0.25408088680965946
10.92295,-0.11478232074328355,-0.11352671020686543,0.25627175316000295,0.25627175316000295
10.966775,-0.11359895898987275,-0.11235337358452246,0.2573288011656161,0.2573288011656161
11.0106,-0.1125778607307199,-0.11134218098673301,0.25836093344342115,0.25836093344342115
11.099599999999999,-0.11069137601240564,-0.10947545284462125,0.26073740010274404,0.26073740010274404
11.144099999999998,-0.10982722705552905,-0.10862100514679598,0.26188486269730377,0.26188486269730377
11.1886,-0.10910003561537582,-0.10790339944286108,0.2630058575438622,0.2630058575438622
11.3696,-0.10636399052164607,-0.10520519050123685,0.26811763212799283,0.26811763212799283
11.5535,-0.10394108087840938,-0.10281891647766052,0.2734325408236222,0.2734325408236222
11.7404,-0.10159582119624784,-0.10050914015454394,0.27894762631905196,0.27894762631905196
11.83535,-0.10034197070925842,-0.09927267562955025,0.2818558443186151,0.2818558443186151
11.9303,-0.09886783884216055,-0.09781551627349994,0.28463651005743884,0.28463651005743884
12.02675,-0.09738185063603966,-0.09634635878782927,0.2870801743816569,0.2870801743816569
12.1232,-0.09611839309817916,-0.09509933186784413,0.2894103504543504,0.2894103504543504
12.3193,-0.09380849045384054,-0.09282165350959513,0.29428170002089615,0.29428170002089615
12.5186,-0.09155541759689506,-0.09059979149527,0.2995517317899521,0.2995517317899521
12.569199999999999,-0.090992534063435,-0.09004459666871806,0.30105571426336336,0.30105571426336336
12.6198,-0.09030702088219292,-0.0893666798969909,0.30252599220071497,0.30252599220071497
12.721,-0.08886331036776825,-0.08793789115986457,0.30536806814459705,0.30536806814459705
12.77245,-0.08809508170110274,-0.08717711307786905,0.3069057261095128,0.3069057261095128
12.8239,-0.08723366243025667,-0.08632305489602174,0.3084089263020691,0.3084089263020691
12.9268,-0.08544147126896126,-0.08454532311082782,0.3113146471603374,0.3113146471603374
12.979075,-0.08448357604805527,-0.08359464212405383,0.31289949283509055,0.31289949283509055
13.03135,-0.0834075335375514,-0.08252572720484785,0.31444893987638955,0.31444893987638955
13.1359,-0.08110063858649191,-0.08023283300466937,0.31744440312663613,0.31744440312663613
13.189,-0.0798216177432636,-0.07896079586217881,0.3190663552248082,0.3190663552248082
13.2421,-0.07836311288107531,-0.07750919085847033,0.3206521350144479,0.3206521350144479
13.295200000000001,-0.07672570355437199,-0.07587859888366778,0.32220245234634953,0.32220245234634953
13.321750000000002,-0.07580587369605461,-0.07496214717187281,0.322964530121533,0.322964530121533
13.335025000000002,-0.07529895567495684,-0.07445691066284675,0.3233423362747234,0.3233423362747234
13.3483,-0.07470127625924262,-0.073860907744223,0.3237180013947688,0.3237180013947688
13.36179375,-0.07409415886222866,-0.07325548935272502,0.3238915111882739,0.3238915111882739
13.375287499999999,-0.07357722936048304,-0.07274025371607022,0.32406366219358274,0.32406366219358274
13.402275,-0.07263112212915003,-0.07179751888051913,0.3244039164187776,0.3244039164187776
13.45625,-0.0709065669919822,-0.07007964776445523,0.3250684314964897,0.3250684314964897
13.5642,-0.0677363461249672,-0.06692255636238341,0.3263350367428127,0.3263350367428127
13.61905,-0.06622084351101759,-0.06541360560504542,0.32685906794953895,0.32685906794953895
13.6739,-0.06480986000895049,-0.06400909527498634,0.3273642060903667,0.3273642060903667
13.72875,-0.06348600201425866,-0.06269163302214037,0.32785085296947536,0.32785085296947536
13.7836,-0.06231247662865069,-0.061524427178672375,0.32831940121522785,0.32831940121522785
13.83935,-0.061142328361455535,-0.06036062530405308,0.32905097549593176,0.32905097549593176
13.8951,-0.05987474900709115,-0.059099316107128576,0.32976026198721003,0.32976026198721003
14.0066,-0.057331576169794285,-0.05656845972293579,0.3311138140398436,0.3311138140398436
14.063225,-0.05603409867227889,-0.055277125241571023,0.33188685718650013,0.33188685718650013
14.11985,-0.05466929566125819,-0.05391839148999225,0.33263687428013206,0.33263687428013206
14.2331,-0.05188074199271005,-0.0511417597514979,0.33406972647566174,0.33406972647566174
14.29065,-0.050421460518918146,-0.04968842829746639,0.33485587287750657,0.33485587287750657
14.3482,-0.04887509102658313,-0.04814793737373579,0.3356186829063271,0.3356186829063271
14.405750000000001,-0.0472544271105048,-0.04653308171521381,0.3363586395292788,0.3363586395292788
14.4633,-0.045505957021916045,-0.04479035068934677,0.337076214803894,0.337076214803894
14.580300000000001,-0.04191413506901775,-0.04120998751862492,0.3380552461715451,0.3380552461715451
14.6388,-0.040093105986197704,-0.039394585071796204,0.33851689883907454,0.33851689883907454
14.668050000000001,-0.039137409125187185,-0.03844167631786384,0.3387409332543928,0.3387409332543928
14.6973,-0.03807374425544002,-0.03738078292514783,0.3389605044291373,0.3389605044291373
14.7270125,-0.03700398105431768,-0.036313818133491764,0.3389119386417358,0.3389119386417358
14.756725,-0.03606094897761373,-0.035373567580434966,0.3388610152225685,0.3388610152225685
14.81615,-0.03431712348301057,-0.03363525501456985,0.3387522134215737,0.3387522134215737
14.875575000000001,-0.032697001332058495,-0.03202057985626699,0.3386343313183855,0.3386343313183855
14.935,-0.03119358920034034,-0.03052254982904834,0.3385075955950026,0.3385075955950026
15.1765,-0.025484196964994935,-0.024834383520630304,0.33827935081373184,0.33827935081373184
15.422,-0.020101946430740373,-0.019472696546892727,0.33816333768363893,0.33816333768363893
15.6714,-0.014859968751052995,-0.01425062741275982,0.3381189180479531,0.3381189180479531
15.7857,-0.01248766645369226,-0.01188713547997442,0.33815169121393746,0.33815169121393746
15.9,-0.010047542349486646,-0.009455632425010045,0.3381485793674914,0.3381485793674914
15.9249,-0.009483684226419408,-0.00889362779680317,0.33814329165422097,0.33814329165422097
16.01245,-0.007600747211873965,-0.007017139284136898,0.3379114444682939,0.3379114444682939
16.1,-0.005815450452046619,-0.005238186116576025,0.33766462838791966,0.33766462838791966
16.14125,-0.004962219640187885,-0.004387908437224666,0.3375433014157755,0.3375433014157755
16.161875000000002,-0.004512284211295535,-0.003939441102196084,0.33748145240424676,0.33748145240424676
16.1825,-0.003988787006496507,-0.0034174063823353383,0.3374188218841884,0.3374188218841884
16.19885625,-0.003573755618471636,-0.003003530819637959,0.3372090027213001,0.3372090027213001
16.2152125,-0.0032401590179771803,-0.002671086548028902,0.3369993430800251,0.3369993430800251
16.247925000000002,-0.002678100723228652,-0.0021113224818010657,0.3365805036151806,0.3365805036151806
16.2806375,-0.0022201639586080417,-0.0016556661300436344,0.3361623059509171,0.3361623059509171
16.31335,-0.0018555030136592754,-0.0012932718936581392,0.3357447524782022,0.3357447524782022
16.3460625,-0.0015865906870258508,-0.0010266126809935305,0.335327845518918,0.335327845518918
16.378774999999997,-0.0014260123168767023,-0.0008682739385815528,0.33491158732704823,0.33491158732704823
16.4114875,-0.0014040479327851348,-0.0008485358037890653,0.334495980089846,0.334495980089846
16.42784375,-0.0014693561783093278,-0.0009149521898251171,0.33428842124479796,0.33428842124479796
16.436021875,-0.0015345936143106417,-0.0009807424558061994,0.3341847031296959,0.3341847031296959
16.4442,-0.0016568182370111807,-0.0011035190842046958,0.33408102592898153,0.33408102592898153
16.577199999999998,-0.0027470077721431156,-0.002202571469624014,0.3343123431751692,0.3343123431751692
16.61045,-0.003230843049502741,-0.002688589262377551,0.33436232271474364,0.33436232271474364
16.627074999999998,-0.003561364212231243,-0.003020196776654173,0.3343861599528555,0.3343861599528555
16.6437,-0.003975428160570108,-0.0034353438221397005,0.33440923477391055,0.33440923477391055
16.660325,-0.00450321248091491,-0.003964207999564804,0.33443155159801685,0.33443155159801685
16.676949999999998,-0.0051965985192490086,-0.004658670666987485,0.33445311481914125,0.33445311481914125
16.6852625,-0.0056350611046944495,-0.005097670360592055,0.33446361519459433,0.33446361519459433
16.693575,-0.006166393150060042,-0.005629538711765729,0.3344739288052817,0.3344739288052817
16.701887499999998,-0.006846762105679742,-0.006310443173307552,0.33448405619317395,0.33448405619317395
16.70604375,-0.007289062829136119,-0.006753011349684319,0.3344890502224996,0.3344890502224996
16.708121875,-0.0075624443848376485,-0.007026526556661398,0.3344915298505094,0.3344915298505094
16.709160937500002,-0.00772555906802171,-0.007189708047359678,0.3344927653215337,0.3344927653215337
16.7102,-0.00794195498699482,-0.007406170760995707,0.33449399789864004,0.33449399789864004
16.711255859375,-0.008160969145865974,-0.0076252527813730426,0.33461846004647977,0.33461846004647977
16.71231171875,-0.00832536701949723,-0.007789718503686029,0.3347428880716844,0.3347428880716844
16.714423437500002,-0.008599092930285381,-0.008063580073817493,0.3349916417939978,0.3349916417939978
16.718646875,-0.009035084709630242,-0.008499843017036797,0.3354887402047217,0.3354887402047217
16.7228703125,-0.009385427593513813,-0.008850456859518806,0.3359852937668465,0.3359852937668465
16.72709375,-0.00967893114927511,-0.00914423116843627,0.33648130311553776,0.33648130311553776
16.735540625,-0.010144487138331146,-0.00961032804956113,0.33747169170895785,0.33747169170895785
16.7439875,-0.010489227706325328,-0.009955608690772152,0.3384599110490208,0.3384599110490208
16.752434375,-0.010740291955280725,-0.010207212196802122,0.33944596618597717,0.33944596618597717
16.760881249999997,-0.010913504683959642,-0.010380963367244676,0.3404298621563309,0.3404298621563309
16.769328124999998,-0.011019165169055519,-0.010487161480499685,0.3414116039828881,0.3414116039828881
16.777775,-0.01106443446690992,-0.010532967594951368,0.34239119667479395,0.34239119667479395
16.786221875,-0.011054506489152849,-0.01052357562344172,0.34336864522758176,0.34336864522758176
16.79466875,-0.010993247830914718,-0.010462852163039276,0.3443439546232114,0.3443439546232114
16.8115625,-0.0107276919626878,-0.010198364271612493,0.34628817580324384,0.34628817580324384
16.828456250000002,-0.0102833935157377,-0.009755130586847498,0.34822389980078244,0.34822389980078244
16.84535,-0.009668305315709709,-0.009141103946841343,0.3501511659873111,0.3501511659873111
16.862243749999998,-0.008884522578772432,-0.008358379581200656,0.3520700135212598,0.3520700135212598
16.8791375,-0.007928719100049969,-0.007403631297428642,0.35398048134934623,0.35398048134934623
16.89603125,-0.0067914744619757125,-0.006267438691422465,0.35588260820790785,0.35588260820790785
16.904478125,-0.006149719562396682,-0.00562620862499067,0.35683055582152284,0.35683055582152284
16.912925,-0.00545512406069554,-0.00493213717061752,0.3577764326242263,0.3577764326242263
16.921371875000002,-0.004703377984187146,-0.004180914357006225,0.35872024339948,0.35872024339948
16.929818750000003,-0.003888694605904519,-0.003366753458913212,0.3596619929178411,0.3596619929178411
16.938265625,-0.0030030886200289736,-0.002481669171272201,0.360601685937007,0.360601685937007
16.9467125,-0.002035053447435483,-0.001514154916996768,0.36153932720185256,0.36153932720185256
16.955159375,-0.0009668600867792501,-0.00044648169676995,0.3624749214444724,0.3624749214444724
16.963606249999998,0.0002319955681829201,0.0007518545948882627,0.3634084733842187,0.3634084733842187
16.9678296875,0.0008978066707627808,0.0014174063065757196,0.3638744849618384,0.3638744849618384
16.972053125,0.0016263639167580772,0.0021457043555251076,0.36433998772774345,0.36433998772774345
16.976276562499997,0.0024503149708312703,0.0029693964055384913,0.3648049822682882,0.3648049822682882
16.978388281249998,0.0029248682547089924,0.0034438202599655016,0.3650372891370707,0.3650372891370707
16.979444140625,0.003193250844295287,0.003712138153096451,0.3651533950030881,0.3651533950030881
16.9805,0.0035236278229369895,0.00404245044733828,0.3652694691690376,0.3652694691690376
16.98157265625,0.003858622429597337,0.004377379352726358,0.3652448626082549,0.3652448626082549
16.982645312499997,0.004130824763944046,0.004649515998005067,0.3652202593496337,0.3652202593496337
16.984790625,0.004612653554834463,0.005131213448788257,0.3651710627362263,0.3651710627362263
16.989081249999998,0.005451860721982505,0.0059701580848949805,0.3650727091062163,0.3650727091062163
16.993371874999998,0.006197954303713192,0.006715989334059976,0.3649744082366657,0.3649744082366657
16.997662499999997,0.006884259163070143,0.007402032059734584,0.364876160085278,0.364876160085278
17.006243749999996,0.008134289902038296,0.008651539126534822,0.3646798217680297,0.3646798217680297
17.014825,0.009268538443568869,0.00978526478785746,0.3644836938169981,0.3644836938169981
17.02340625,0.010318557141823519,0.010834761396350017,0.3642877758954284,0.3642877758954284
17.0319875,0.011302867378882335,0.011818550332655043,0.36409206766728164,0.36409206766728164
17.049149999999997,0.013119544588171472,0.013634187300682247,0.3637012789506718,0.3637012789506718
17.0663125,0.01478078603197479,0.015294391639809777,0.3633113249931096,0.3633113249931096
17.083475,0.016322791094427507,0.016835362721449726,0.3629222031318747,0.3629222031318747
17.100637499999998,0.01776914836537487,0.01828068912344949,0.3625339107155254,0.3625339107155254
17.1178,0.019136370228771928,0.01964688321627013,0.3621464451038383,0.3621464451038383
17.1349625,0.020436602580524002,0.020946090884845992,0.3617598036677502,0.3617598036677502
17.152124999999998,0.02167910965827875,0.02218757635320087,0.361373983789299,0.361373983789299
17.18645,0.024018531212681885,0.02452496386269983,0.36060479828861286,0.36060479828861286
17.220775,0.026197186694677105,0.026701597450159036,0.3598388678778936,0.3598388678778936
17.2551,0.02824039415416403,0.02874279506900563,0.3590761720071734,0.3590761720071734
17.2899875,0.030208758642143507,0.03070912903332605,0.35832179005040427,0.35832179005040427
17.324875,0.032092777307614916,0.03259112942889048,0.3575705662752323,0.3575705662752323
17.3597625,0.03390116653422828,0.03439751254118161,0.3568224809191691,0.3568224809191691
17.39465,0.03564386442173633,0.03613821637238545,0.3560775143840508,0.3560775143840508
17.464425,0.03896617100859288,0.03945657063604756,0.35459686019542364,0.35459686019542364
17.5342,0.04212984894093839,0.042616343332446655,0.35312845014636973,0.35312845014636973
17.6051,0.045192920755166545,0.04567549441073363,0.35158228362801114,0.35158228362801114
17.676,0.048110892309492906,0.04858959231182019,0.35004951175270427,0.35004951175270427
17.746899999999997,0.05094322961829805,0.05141810229902221,0.34852996215295035,0.34852996215295035
17.782349999999997,0.05235044014072385,0.05282341630437979,0.3477750926447253,0.3477750926447253
17.8178,0.053805962499046595,0.05427705345385136,0.34702346539231427,0.34702346539231427
17.853825,0.0552549789361964,0.05572416559590437,0.3460841926990587,0.3460841926990587
17.88985,0.05659759584697704,0.05706488970414901,0.3451496637014056,0.3451496637014056
17.9619,0.05912867025788643,0.05959221261702968,0.34329469959096764,0.34329469959096764
18.03395,0.06150786189332196,0.06196769762687258,0.34145830185616177,0.34145830185616177
18.106,0.06375689278999255,0.06421306605836075,0.3396402043291527,0.3396402043291527
18.252450000000003,0.06805350773436811,0.06850236983863148,0.33606403359037457,0.33606403359037457
18.3989,0.07205129805458614,0.07249302287464016,0.33255823368811305,0.33255823368811305
18.6964,0.0796347382299627,0.08006247727211961,0.32577206261458097,0.32577206261458097
18.772,0.08149201602340685,0.08191630655927414,0.32398999172819004,0.32398999172819004
18.8476,0.08326620176052225,0.08368708520130652,0.3222259731522433,0.3222259731522433
18.9988,0.08668382602391554,0.08709801688105179,0.318751052998738,0.318751052998738
19.15245,0.08998455054354175,0.09039210209241806,0.31521657249400004,0.31521657249400004
19.3061,0.0931090056938967,0.09351007581293108,0.3117537834611815,0.3117537834611815
19.6184,0.09915532075177713,0.09954368329086052,0.3049842022641298,0.3049842022641298
19.777050000000003,0.10215056515829483,0.10253270152558652,0.30166811092054646,0.30166811092054646
19.9357,0.10515194356230567,0.10552800180148912,0.29841852852107587,0.29841852852107587
20.016325000000002,0.10670419293433019,0.10707721753900123,0.2968130192777333,0.2968130192777333
20.09695,0.10830968642325889,0.10867971382866608,0.29522361646950146,0.29522361646950146
20.1372625,0.10914053130979723,0.1095090735968397,0.29443488244356436,0.29443488244356436
20.177574999999997,0.11000032245513944,0.11036738851518137,0.29365008852522206,0.29365008852522206
20.217887499999996,0.11090700685811752,0.11127260551244332,0.29286920643869385,0.29286920643869385
20.238043749999996,0.11139255039579575,0.11175741863300286,0.2924802235680272,0.2924802235680272
20.2582,0.1119443647203703,0.11230850471934939,0.29209220817066095,0.29209220817066095
20.278675,0.1125029025158611,0.11286630498268571,0.29154442181940515,0.29154442181940515
20.299149999999997,0.11299222648319962,0.11335489364806718,0.29099825013089686,0.29099825013089686
20.3401,0.11390105985600628,0.11426226307248533,0.28991072509430865,0.28991072509430865
20.421999999999997,0.11558296030106326,0.11594126199448584,0.2877547706317002,0.2877547706317002
20.503899999999998,0.11718181024112116,0.11753724510816975,0.2856239430140364,0.2856239430140364
