energy,n_xx,n_zz,n_ixx,n_izz
270.2,0.0012826849832083917,0.0011680175845484053,0.0001870323073824978,0.0001870323073824978
270.22,0.00128183903769405,0.0011670431019703315,0.00018692128168612142,0.00018736876284986158
270.24,0.0012808040032544613,0.0011665997067684323,0.00018685286277558602,0.00018772372917155177
270.26,0.0012797999939950324,0.0011662226491077434,0.00018719946617639846,0.00018720824869457577
270.28,0.0012790172889652518,0.001165494164405409,0.00018756722579074157,0.00018662568831546593
270.3,0.0012783987255448753,0.0011645124604367071,0.00018796198003329264,0.00018589461775028293
270.32,0.0012779639727848518,0.001163157219012634,0.00018828980795144984,0.00018516784873322614
270.34,0.0012776396428829165,0.0011615117126729019,0.00018842115786495405,0.00018477274668282837
270.36,0.0012772489478456237,0.0011599467991854355,0.00018832435810815022,0.00018484446572554567
270.38,0.0012767444599114457,0.0011585855616606778,0.0001882251468095824,0.00018491669369237175
270.4,0.001276197194194238,0.001157285699754141,0.00018812028387196587,0.00018499507289685798
270.42,0.0012756203331747323,0.0011560157186876739,0.00018800689109577706,0.0001850827354817057
270.44,0.0012750162729275542,0.0011547592707580232,0.00018788515054911175,0.00018518261137097765
270.46,0.001274382208379848,0.0011535017718733586,0.00018775753869624618,0.0001852979281697533
270.48,0.001273713425884107,0.001152223766221285,0.00018763525015258253,0.0001854399554948712
270.5,0.0012730387927957973,0.001150879094833169,0.00018755060321229078,0.0001856396714257137
270.52,0.0012723415587727704,0.001149616289893333,0.00018742962637499373,0.00018613125989269368
270.54,0.0012716047036533276,0.0011485886553563617,0.00018736250000745655,0.00018664571145083147
270.56,0.0012708745345338206,0.001147727782464203,0.00018734765592770425,0.0001870823866108306
270.58,0.0012701759048454433,0.0011469747808568482,0.00018736975758303702,0.00018741464307995797
270.6,0.0012695195008628306,0.001146279436214404,0.00018740644590972005,0.00018761122316606976
270.62,0.0012688997936677689,0.0011455715636651141,0.0001874378238122171,0.0001876602438420125
270.64,0.0012683139398314805,0.0011447875731047242,0.00018746968171867956,0.0001876047012911336
270.66,0.0012677807422303664,0.0011439063133034436,0.00018750355661841905,0.00018751087091843947
270.68,0.0012673244117406709,0.0011429448435493464,0.0001875096286487074,0.0001874251904928177
270.7,0.0012669388099315363,0.0011419199535905491,0.00018742655243597907,0.00018735169748349044
270.72,0.001266572420170467,0.0011408095515718691,0.00018720996054793864,0.0001872832623427792
270.74,0.0012662038671246419,0.0011395137806113815,0.00018688762060960863,0.00018725338086196102
270.76,0.0012657693056633526,0.0011381406209078368,0.00018635545940733485,0.00018762554481117815
270.78,0.00126509401655488,0.001137094742061398,0.00018564473473105662,0.000188399406072725
270.8,0.0012641470507378772,0.0011364811240238022,0.0001850181626098734,0.00018906913523100943
270.82,0.0012629693142277459,0.0011362813400759915,0.00018450861058632984,0.00018960263878789157
270.84,0.0012617638138443768,0.0011361123747142998,0.00018439821686685667,0.0001893479755839622
270.86,0.0012606947051757784,0.0011356088213498648,0.00018435404526902363,0.00018897476918755738
270.88,0.0012596845455884608,0.0011348944404783118,0.00018435727113178115,0.00018853752176585555
270.9,0.001258757565063741,0.0011339214423957274,0.0001844341346465676,0.0001880637261008229
270.92,0.0012579748826243124,0.0011326459850871274,0.00018450373713946398,0.0001877820557870507
270.94,0.0012571858775617527,0.0011314770798847174,0.0001843357913120814,0.00018812218292796017
270.96,0.0012562389259104005,0.001130750812044056,0.0001841686465331431,0.00018848769497216406
270.98,0.0012551638898943575,0.001130381070633507,0.00018409019171862807,0.00018865497497348502
271.0,0.0012541123007290423,0.0011300179549582458,0.00018426112479556154,0.0001882486177066397
271.02,0.0012531834126333896,0.001129411224863385,0.00018446191481650282,0.00018772457317813203
271.04,0.0012523308983971044,0.001128629920257845,0.00018468438489748062,0.0001871189542916309
271.06,0.0012515543198885388,0.001127670654895765,0.00018491353413186543,0.00018648876453892808
271.08,0.0012508515794281455,0.001126546973976086,0.0001851237487472136,0.00018589369462721725
271.1,0.0012502074418463442,0.001125292386451434,0.00018528826391453227,0.00018538027597178787
271.12,0.0012495947567730955,0.0011239502936907003,0.00018539160724633682,0.00018497277156813576
271.14,0.0012489852839036178,0.0011225620801951892,0.0001854362866162469,0.0001846749272201626
271.16,0.0012483578504823122,0.0011211571928960438,0.00018543449529852138,0.0001844755201870856
271.18,0.0012476974339478216,0.0011197503514938575,0.00018540288246699706,0.00018436427480542168
271.2,0.0012470005944641104,0.0011183586878691408,0.00018536809223473481,0.00018434792637798467
271.22,0.001246281928641622,0.0011170190788638056,0.00018535116187927848,0.00018442844535107616
271.24,0.0012455557163586933,0.0011157688642378873,0.0001853470592697073,0.00018457005696558424
271.26,0.0012448205640776893,0.0011146184714678998,0.00018535090437740535,0.00018471947946344062
271.28,0.0012440739427445773,0.0011135513559624968,0.0001853751921974601,0.00018483029505049527
271.3,0.0012433272082306075,0.0011125322836909978,0.00018543730029862355,0.00018486938112232187
271.32,0.0012426055429786934,0.0011115132559627117,0.00018554584670800318,0.00018482336938663942
271.34,0.001241946294507119,0.0011104283974058512,0.0001856943736949344,0.0001847008262865822
271.36,0.0012413756816728075,0.0011092426848690543,0.00018583185704128743,0.00018460100509759198
271.38,0.001240827399333549,0.0011081300316334102,0.00018587451088440866,0.0001846713433822882
271.4,0.001240332932444894,0.0011070130634908673,0.00018598039438239594,0.00018447449620911252
271.42,0.0012399482526706193,0.0011056715681139855,0.00018595864895012344,0.00018434791224999371
271.44,0.0012394749811866575,0.0011044327707051891,0.00018570155256333895,0.0001845917889453561
271.46,0.0012388929476200045,0.0011033336787955009,0.00018554459196153074,0.00018457804070583358
271.48,0.001238323795562486,0.0011021542796382062,0.00018537704437493021,0.0001845681798862206
271.5,0.0012377631815878695,0.0011009192420795035,0.000185187342212066,0.00018455673591778057
271.52,0.0012371917080748656,0.0010996397541838479,0.00018493177902540763,0.00018461552993810984
271.54,0.0012365810273635522,0.0010983395250023268,0.00018462979106831243,0.00018472973704370405
271.56,0.0012359110594962629,0.0010970444063537674,0.00018427682229499298,0.00018494532038285417
271.58,0.0012351588141648615,0.0010957894323821414,0.00018390257369396115,0.00018523380381491194
271.6,0.001234336090016083,0.0010945624319218428,0.000183547926681857,0.00018558645678388568
271.62,0.0012334649746307464,0.0010934001531243424,0.00018320095426725317,0.00018609332379126796
271.64,0.0012324765892101515,0.0010925386071207208,0.0001828091221940521,0.0001868139935840254
271.66,0.0012313970698039959,0.0010919291828481359,0.00018257373548185324,0.0001872315973595026
271.68,0.0012302900577694554,0.001091398766540855,0.00018237716628657116,0.00018757964861994028
271.7,0.0012291009972887157,0.0010910494606958985,0.00018225185096901533,0.00018781050823470807
271.72,0.0012278514357817521,0.001090854382776276,0.00018230996448736095,0.0001877005028839319
271.74,0.0012267437757954114,0.0010904010332197327,0.00018265571396075252,0.00018700465182835662
271.76,0.0012258414597703785,0.001089557833828305,0.00018294883522980667,0.00018643054961006911
271.78,0.0012250046293609024,0.0010886229380375342,0.00018318821138879247,0.00018595981063820682
271.8,0.001224218823998476,0.001087609866311815,0.000183445535094483,0.0001854072886744925
271.82,0.0012235526870719925,0.0010863307568412133,0.00018370302986424436,0.00018479796498589292
271.84,0.001222877747968013,0.0010850284005634895,0.00018374297435615016,0.00018462745748091224
271.86,0.0012221240262813777,0.001083834940792561,0.00018387232022258642,0.00018425850557696674
271.88,0.0012214315084586949,0.0010823924321611653,0.0001840572537591935,0.0001837881545668935
271.9,0.0012208054313604011,0.0010808397241680251,0.000184191173067359,0.00018370899169495468
271.92,0.0012202034915428741,0.0010794025632844112,0.00018427857367953683,0.0001836993394059997
271.94,0.0012196068879729077,0.0010779850318094484,0.00018431562695404735,0.00018368968735533645
271.96,0.0012189924354592666,0.0010764992523737422,0.00018430667531905891,0.00018372459707140194
271.98,0.0012183420278069057,0.001075053106222941,0.00018427384971611682,0.00018400929836838597
272.0,0.0012176562878348004,0.0010737537808504741,0.00018424925773255157,0.00018433418719048574
272.02,0.0012169578901084835,0.001072558361252826,0.00018425699747182098,0.00018467843271855911
272.04,0.001216287526131356,0.0010714283817226593,0.00018429844445815247,0.00018500827132019378
272.06,0.00121564628262526,0.001070390210777775,0.0001843099427997302,0.00018541495806036106
272.08,0.001215000335228266,0.001069542397458208,0.0001842987717796363,0.0001858341541970641
272.1,0.0012143529839805521,0.0010688648418650277,0.0001842943857039757,0.00018609275008011955
272.12,0.0012137071268823636,0.0010682410278038076,0.0001842761138255485,0.0001861457731695606
272.14,0.0012130538923602653,0.0010675783754455351,0.00018426277840469482,0.000186025740524634
272.16,0.0012124138831207934,0.0010668387479007549,0.00018427625468074997,0.0001857954844389653
272.18,0.0012118211285147493,0.0010660239409292943,0.00018430255529196504,0.0001854891018628406
272.2,0.0012112848617651425,0.0010651274831286594,0.00018429411981684237,0.00018510120602115837
272.22,0.0012107731533233807,0.001064106171568714,0.00018421166235375611,0.0001846300254962329
272.24,0.001210249261700901,0.0010629104481964836,0.0001840677412342494,0.00018413036560429745
272.26,0.0012097036849379327,0.0010614909574881584,0.0001838824513801676,0.00018367733777339886
272.28,0.0012091330721659868,0.0010599801417548965,0.00018365445141640493,0.00018352563888487754
272.3,0.0012085269370522788,0.0010585663049877468,0.00018338678996610553,0.00018351599111150456
272.32,0.0012078775009748308,0.001057224864203277,0.00018308660984563512,0.000183506343575096
272.34,0.001207168099566087,0.0010558594436698425,0.0001827476641738539,0.00018349669627558228
272.36,0.001206329288377903,0.001054584521984248,0.0001823712640552973,0.0001836709904838047
272.38,0.0012054144368454595,0.001053376221982261,0.00018216201959469052,0.00018364923322603194
272.4,0.0012045581207641705,0.001051991932697756,0.00018202778171555757,0.0001836061830521193
272.42,0.001203707601069505,0.0010506187911015926,0.00018183108765182612,0.00018391393870991445
272.44,0.0012028108325203655,0.0010494742986980983,0.00018168227857506827,0.00018425905162841724
272.46,0.0012019113471700962,0.0010484843284993197,0.0001815908049370982,0.0001845170616007067
272.48,0.0012010359900261351,0.001047571957668662,0.00018154597617482885,0.0001846597828435524
272.5,0.0012002128809695681,0.0010466474765603658,0.0001815354741943193,0.0001846597367921648
272.52,0.0011994509750291123,0.0010456300772598065,0.00018149853170261422,0.00018461121400626215
272.54,0.0011986698720110964,0.0010446402958069788,0.0001813631658942949,0.00018470620061612208
272.56,0.001197784047200874,0.0010438665959577019,0.00018123484058664928,0.00018476381744347248
272.58,0.0011968835889769297,0.0010431451528769022,0.00018128364629724366,0.00018440857678038075
272.6,0.00119614801064727,0.0010420189588755252,0.00018144771431841654,0.00018369615630732004
272.62,0.0011956128768300836,0.0010405216598256288,0.00018150263313184163,0.00018336165891741889
272.64,0.001195111200651747,0.0010390851654117216,0.00018128880622655545,0.00018335201516299094
272.66,0.0011944789193535361,0.0010377756837233007,0.00018090955408478916,0.00018334237164434748
272.68,0.001193548756616974,0.0010365271405119733,0.00018041153134527535,0.00018336334871411252
272.7,0.0011925630643873956,0.001035298450361893,0.00018035672464287306,0.0001833230853141377
272.72,0.0011916453145740023,0.001034059523262277,0.0001801265149243943,0.00018331344250243297
272.74,0.0011906862095521073,0.0010328346030622072,0.00018005559342030715,0.00018330379992623617
272.76,0.0011897761963292825,0.0010316154559072547,0.00017996309971247994,0.00018329415758547835
272.78,0.00118884860067184,0.001030399855813473,0.00017985936478160836,0.0001832845154800904
272.8,0.0011878892128584346,0.0010291865104550381,0.00017978028590957725,0.00018327487361000322
272.82,0.00118692052642355,0.0010279745539909044,0.0001797544348978755,0.00018326523197514805
272.84,0.0011859681038217575,0.0010267633662197375,0.0001797661771037223,0.00018325559057545562
272.86,0.0011850320199074458,0.0010255524836636483,0.00017979455237856262,0.00018324594941085715
272.88,0.0011841038567799252,0.001024341548985021,0.0001798390329938155,0.00018323630848128376
272.9,0.0011831797502859166,0.001023130279740712,0.00017990141498343208,0.0001832266677866665
272.92,0.0011822512960580098,0.0010219184480031343,0.00017998113391715304,0.0001832170273269364
272.94,0.001181269065660222,0.0010207058665286399,0.0001800822327131938,0.00018320738710202476
272.96,0.0011803215592614271,0.0010194923790774156,0.0001804063416733321,0.0001831977471118627
272.98,0.0011795781793583662,0.0010182778534565703,0.00018082441111621112,0.00018318810735638147
273.0,0.0011790678306620387,0.0010170621764176463,0.00018117690795045987,0.00018317846783551223
273.02,0.0011786584007425144,0.001015845249839075,0.0001812760900783219,0.0001831688285491863
273.04,0.0011781736765862157,0.001014626987824211,0.0001812023485200803,0.00018315918949733496
273.06,0.0011775987849131182,0.001013407314465256,0.000181107191305169,0.00018314955067988943
273.08,0.0011769611926806473,0.0010121861620916957,0.00018098988927405844,0.00018313991209678116
273.1,0.0011763157957974978,0.0010109634698888344,0.00018093473243055013,0.0001831302737479414
273.12,0.0011756980320635406,0.001009739182794193,0.00018083158946978486,0.00018312063563330163
273.14,0.0011750638032415523,0.0010085132506009041,0.00018068008710285174,0.00018311099775279325
273.16,0.001174387276885917,0.0010072856272343904,0.00018048951123596788,0.0001831013601063476
273.18,0.0011736382516084692,0.0010060562701536932,0.00018028408970092896,0.00018309172269389618
273.2,0.0011728851786491218,0.0010048251398538603,0.00018017307134037184,0.0001830820855153706
273.22,0.0011721407010944133,0.0010035921994590723,0.0001799876401442885,0.00018307244857070212
273.24,0.0011713205123259432,0.0010023574143717656,0.00017979936316970822,0.0001830628118598225
273.26,0.0011704831205112574,0.0010011207519785785,0.0001797115364298891,0.00018305317538266314
273.28,0.0011696718421017871,0.0009998821814045384,0.0001796273068319077,0.00018304353913915574
273.3,0.0011688775422534303,0.000998641673295632,0.0001795727409786805,0.00018303390312923183
273.32,0.001168129132485365,0.0009973991996336184,0.00017952533064737316,0.00018302426735282312
273.34,0.0011673884055171963,0.0009961547335816572,0.00017941006815841112,0.00018301463180986124
273.36,0.0011666118318832935,0.000994908249337528,0.00017929482791750886,0.00018300499650027768
273.38,0.0011658387456943587,0.0009936597220128215,0.00017921896577660694,0.0001829953614240045
273.4,0.0011650949962199273,0.0009924091275292396,0.00017913439721090356,0.00018298572658097321
273.42,0.0011643640577786577,0.0009911564425110625,0.0001790244742590847,0.00018297609197111557
273.44,0.0011636342559293218,0.0009899016442083133,0.00017889421156787262,0.00018296645759436348
273.46,0.0011629171901447316,0.000988644710407345,0.0001787508592001024,0.00018295682345064858
273.48,0.0011622038395118475,0.0009873856193627303,0.00017854390429114102,0.0001829471895399029
273.5,0.0011614282626847016,0.0009861243497254605,0.00017825678444352024,0.00018293755586205814
273.52,0.0011605432766621751,0.000984860880476538,0.00017796919214091732,0.00018292792241704622
273.54,0.0011595922477559645,0.00098359519086378,0.00017777420158308004,0.00018291828920479915
273.56,0.001158661181403077,0.0009823272603367188,0.00017766496916910194,0.0001829086562252487
273.58,0.001157757930093931,0.0009810570684798672,0.00017755030538469372,0.00018289902347832688
273.6,0.0011568555869228105,0.0009797845949436068,0.00017745529232743927,0.00018288939096396584
273.62,0.0011560159172286971,0.000978509819373113,0.00017740529478652895,0.00018287975868209737
273.64,0.001155162567109003,0.0009772327213164265,0.0001771954357471203,0.00018287012663265357
273.66,0.0011541986264666136,0.0009759532801345657,0.00017702210696257962,0.00018286049481556636
273.68,0.0011531850227248829,0.000974671474885884,0.0001769233488736997,0.0001828508632307682
273.7,0.0011521625819302297,0.0009733872841875543,0.00017690627080012386,0.0001828412318781909
273.72,0.0011511601875206557,0.0009721006860405663,0.00017696880802516523,0.00018283160075776653
273.74,0.0011502016260594335,0.000970811657616924,0.00017711558270949292,0.00018282196986942745
273.76,0.0011494133222740661,0.0009695201749682704,0.00017740238473200893,0.00018281233921310587
273.78,0.0011488251396488962,0.0009682262126498855,0.00017754163571876338,0.00018280270878873376
273.8,0.0011482653279925792,0.0009669297432053975,0.0001774713663789766,0.00018279307859624352
273.82,0.0011476193770315966,0.0009656307364513144,0.00017727762982014587,0.0001827834486355674
273.84,0.0011468409876012736,0.0009643291584574205,0.00017704191777017514,0.00018277381890663763
273.86,0.0011460203572481362,0.0009630249700666949,0.00017692972360198385,0.0001827641894093865
273.88,0.0011452140355401527,0.0009617181246660541,0.00017678213379755992,0.00018275456014374628
273.9,0.0011443868109774432,0.0009604085647311578,0.0001766558698163377,0.00018274493110964957
273.92,0.001143567578666216,0.0009590962162752975,0.0001765482864664844,0.0001827353023070285
273.94,0.0011427695413423699,0.0009577809794920767,0.0001764359164850647,0.00018272567373581563
273.96,0.0011419776373419125,0.0009564627121414513,0.00017628845763035237,0.0001827160453959433
273.98,0.0011411817656373244,0.0009551411979689116,0.00017611808648217514,0.00018270641728734393
274.0,0.0011403362027004535,0.0009538160811484579,0.00017587581819899793,0.0001826967894099501
274.02,0.0011394065735245236,0.0009524867128684817,0.00017566086213171181,0.00018268716176369424
274.04,0.0011384283633005894,0.0009511517221170407,0.00017551259622413247,0.0001826775343485089
274.06,0.0011375168524449537,0.0009498073764873041,0.00017548785046328475,0.00018266790716432664
274.08,0.0011366370588616489,0.0009484289612594898,0.0001753272221982182,0.00018265828021108013
274.1,0.001135680924508573,0.0009470734025148479,0.00017519307373685248,0.00018275430616418968
274.12,0.00113471546764512,0.0009458222624447004,0.0001751368783095734,0.00018284321182002148
274.14,0.0011337776973251899,0.0009446040570193705,0.0001751083253839659,0.00018280198315428678
274.16,0.001132870911595349,0.0009433003537603168,0.00017510856426660162,0.0001826764529989341
274.18,0.001132014677057904,0.0009419177424438186,0.0001751262615882184,0.00018261014890652368
274.2,0.0011312470584780314,0.0009405365797329104,0.00017513652458811744,0.00018260052333747646
274.22,0.0011304901891174707,0.0009391730940016852,0.00017498132732896238,0.0001825908979988936
274.24,0.001129639771681699,0.0009378119705600356,0.00017478206931301053,0.00018258127289070793
274.26,0.0011286097967324864,0.0009364504707132386,0.00017456489118055545,0.00018257164801285206
274.28,0.001127713643675548,0.0009350875169753687,0.00017480412501487096,0.00018256202336525905
274.3,0.0011270593833064804,0.0009337225764390936,0.00017471079227928708,0.00018255239894786167
274.32,0.0011263003392711379,0.0009323553471457369,0.00017445367141622425,0.0001825427747605928
274.34,0.001125427502642555,0.000930985640662219,0.00017420780634608247,0.00018253315080338518
